Timestamp, Rotation x, Rotation y, Rotation z
40,4.375,-1.875,9.0625,
60,5.5,-2.875,9.0625,
80,4.9375,-2.25,9.5,
100,2.9375,-1.25,10.875,
110,-0.3125,1.125,10.25,
110,1.375,-0.25,10.75,
150,3,-0.6875,10.5625,
170,4.5625,-0.375,9.1875,
190,4.75,-0.8125,8.75,
210,4.75,0.8125,7.8125,
230,3.875,1.125,7.875,
250,5,0.875,8.8125,
270,3.375,0.5,7.6875,
290,1.5625,1.375,6.5625,
310,4,-0.4375,5.3125,
330,3.9375,-1.875,4.375,
350,3.8125,-3.75,2.5,
370,2.6875,-4.8125,1.5625,
390,2.375,-4.375,1.9375,
410,1.375,-3.3125,2.5625,
430,-1.75,-3.0625,2.6875,
450,-3.9375,-1.6875,3.125,
470,-4.375,-0.9375,3.6875,
490,-5.125,0.25,3.625,
510,-5.25,0.6875,2.25,
530,-2.625,-0.8125,0.25,
550,-1.625,-1.625,-0.5625,
570,0.5,-1.125,-1.0625,
590,1.625,-1.625,-1.1875,
610,0.0625,-1.8125,-1.1875,
630,-1.5,-2,-0.9375,
650,0.75,-2.125,-0.375,
670,1.9375,-1.75,0.3125,
690,1.125,-1.8125,0.4375,
710,1.1875,-1.375,0.4375,
730,0.4375,-0.875,0.3125,
750,2.625,-1.0625,0.9375,
770,-0.25,0.25,0,
790,0.5,0.5,-0.3125,
810,3.25,-0.1875,0.375,
830,2.9375,0.625,0.5625,
850,0.875,0.875,0.375,
870,2.25,-0.5,1.25,
890,1.4375,0.3125,1.1875,
910,2.3125,-0.4375,0.9375,
930,3.5625,-0.3125,0.9375,
950,3.75,-0.5625,0.375,
970,3.8125,-0.4375,0.75,
990,2.125,-1.0625,0.5625,
1010,1.75,-0.6875,0.625,
1030,1.5,-0.75,0.625,
1050,1.875,-0.5,0.3125,
1070,1.625,-0.875,0.3125,
1090,2.3125,-1.375,-0.1875,
1110,-0.1875,-1,-0.3125,
1130,0.3125,-0.8125,0.375,
1150,1.1875,-1.0625,-0.375,
1170,-0.75,-0.625,0.4375,
1190,-0.0625,-0.4375,0.0625,
1210,0.625,-0.4375,-0.75,
1230,-0.0625,-0.375,0.125,
1250,-1.6875,0.3125,-0.6875,
1270,-1.3125,0.0625,-0.4375,
1290,-0.125,-0.1875,-0.4375,
1310,-1.25,0.125,-0.5,
1330,-0.0625,-0.0625,-0.25,
1350,0.875,-0.1875,0.125,
1370,0.125,0.125,0,
1390,-1.5625,-0.0625,-0.4375,
1410,-0.625,0,-0.4375,
1430,-0.4375,-0.1875,-0.125,
1450,-0.25,-0.3125,-0.0625,
1470,-1,-0.25,-0.3125,
1490,-0.625,-0.4375,0,
1510,-0.25,-0.4375,-0.3125,
1530,-0.3125,-0.1875,-0.3125,
1550,-0.1875,-0.25,-0.375,
1570,0.375,-0.375,0,
1590,0.875,-0.4375,-0.3125,
1610,0.1875,-0.4375,-0.5,
1630,0.625,-0.3125,-0.8125,
1650,-0.625,-0.4375,-0.625,
1670,-0.125,-0.3125,-0.375,
1690,0.625,-0.375,-0.5,
1710,0.75,-0.4375,0.375,
1730,0.5,-0.3125,0.3125,
1750,0.1875,-0.1875,0.1875,
1770,0.875,-0.1875,0.4375,
1790,1,-0.3125,0.1875,
1810,1.6875,-0.1875,0,
1830,0.75,-0.375,0.25,
1850,0.375,-0.5,0.4375,
1870,1.4375,0,0.4375,
1890,2.5625,-0.25,0.625,
1910,1.0625,-0.0625,0.25,
1930,1.1875,-0.75,-0.25,
1950,1.0625,-0.4375,-0.625,
1970,-0.8125,0.875,0.0625,
1990,0.875,0.875,1.6875,
2010,2.125,1.5,2.125,
2030,-0.5625,2.5625,3.0625,
2050,-12.3125,24.9375,7.0625,
2070,-18,29.75,3.75,
2090,-21.75,49.5,0.6875,
2110,-26.4375,54.375,-7.75,
2130,-25.375,46.5,-6.875,
2150,-16.5625,36.75,-11.9375,
2170,-8.0625,27,-17.0625,
2190,26.125,15.3125,-14,
2210,38.8125,12.4375,-13.375,
2230,21.1875,7.0625,-6.625,
2250,10.9375,3.5,-6.25,
2270,0.375,-2.8125,-13.8125,
2290,-20.125,-5.5625,-19.375,
2310,-21.0625,-2.125,-23.1875,
2330,-1.8125,-4.5625,-28.125,
2350,1.5625,-15.1875,-38.75,
2370,1,-19,-45,
2390,6.8125,-18.5,-50.5625,
2410,23.9375,-24.5,-51.125,
2430,37.25,-31.5,-54.375,
2450,43.8125,-37.625,-55.9375,
2470,40.5,-43.3125,-51.9375,
2490,39.5625,-43.25,-51.375,
2510,40.875,-39.125,-46.75,
2530,38.75,-38.8125,-39.4375,
2550,40.25,-37.0625,-32.5625,
2570,40.75,-34.5625,-24.6875,
2590,39.125,-33.6875,-16.375,
2610,32.6875,-33.75,-7.625,
2630,26.6875,-36.75,-1.3125,
2650,19.75,-38.5,2.0625,
2670,14.9375,-38.0625,7,
2690,12.5,-38.8125,12.25,
2700,5.875,-38.25,14.875,
2720,8.5,-35.5625,17.625,
2740,9.625,-33.5625,20.8125,
2760,12.5625,-30.0625,23.0625,
2780,9.5,-29.6875,24.25,
2800,9.5,-27.625,24.75,
2820,13.5,-26.9375,27.125,
2840,14.75,-23.25,30.5625,
2860,10.5,-19.9375,32.75,
2880,8.25,-19,33.5,
2900,8.8125,-15.5625,34.6875,
2920,9.3125,-12.9375,37.75,
2940,2.875,-8.6875,38.0625,
2960,-3.3125,-4.8125,38.25,
2980,-3.8125,-2.625,38.5625,
3000,-2.125,0.3125,38.6875,
3020,-3.0625,3.0625,38.8125,
3040,-5.4375,6.0625,36.1875,
3060,-7.4375,7.6875,32.875,
3080,-5,9.3125,30,
3100,-7,11.1875,27.3125,
3120,-10.125,14.5,22.75,
3140,-8.25,15.375,18.875,
3160,-7.125,17.1875,15.375,
3180,-8.0625,19.125,11.375,
3200,-8.25,21.0625,7.4375,
3220,-9.25,23.0625,4.625,
3240,-9.5,24.4375,1.125,
3260,-12.375,27.0625,-2.5,
3280,-11.8125,29.3125,-5.0625,
3300,-8.9375,29.5,-8.1875,
3320,-13.25,30.8125,-12.3125,
3340,-15.125,31.25,-14.6875,
3360,-13.6875,31.875,-18.1875,
3380,-17.0625,32.4375,-22.0625,
3400,-16.8125,32.9375,-24.6875,
3420,-14.625,32.8125,-25.5625,
3440,-16,32.8125,-27.875,
3460,-18.625,30.6875,-31.625,
3480,-17.3125,26.375,-34.6875,
3500,-17.6875,22.25,-38.5,
3520,-16.125,20.4375,-41.5625,
3540,-7.8125,18.4375,-43.75,
3560,-3.6875,13,-47.5,
3580,-3.875,6,-51.8125,
3600,5.5625,0.1875,-53.5,
3620,6.875,-4.9375,-54.75,
3640,10.3125,-12.25,-53.625,
3660,19.8125,-21.75,-52.3125,
3680,28.25,-26.9375,-51.4375,
3700,31.375,-26.3125,-49.4375,
3720,34.625,-25.9375,-44,
3740,42.1875,-30.8125,-37.5625,
3760,43.3125,-35.5,-34.4375,
3780,44.75,-39.5625,-29.9375,
3800,45.3125,-40.6875,-23.5,
3820,41.25,-42.0625,-17.9375,
3840,40.375,-42.75,-12.25,
3860,44.875,-43.875,-6.6875,
3880,45.1875,-43.8125,-0.625,
3900,42.75,-43.625,4.1875,
3920,40.125,-42.25,8.6875,
3940,38.9375,-42.3125,14.1875,
3960,29.25,-40.6875,20,
3980,28.125,-39.6875,26,
4000,31.25,-36.25,28.5625,
4020,31.4375,-34.8125,34.5,
4040,20.9375,-32,39.125,
4060,16.1875,-28.5625,41.25,
4080,15.0625,-25.75,42,
4100,11.4375,-23,49.1875,
4120,7.3125,-18.125,54.3125,
4140,-3.3125,-11.5,56.125,
4160,-7.25,-6.5,56.8125,
4180,-14.125,-3.0625,63.625,
4200,-18.4375,1.9375,67.3125,
4220,-27.9375,8.75,63.625,
4240,-28.0625,9.8125,63.75,
4260,-24.5,15.5625,63.5,
4280,-23.25,21.4375,61.0625,
4300,-23,24.375,54.9375,
4320,-22.375,28.125,52.4375,
4340,-18.75,33.0625,50.4375,
4360,-17.1875,38.625,47.875,
4380,-10.5625,42.875,42.75,
4400,-7.0625,45.0625,39.125,
4420,-8.375,47.9375,34.5625,
4440,-9.75,47.75,28,
4460,-13.8125,50.375,20.4375,
4480,-12.75,52.1875,11.8125,
4500,-10.8125,48.3125,4.875,
4520,-10.875,47.3125,-5.1875,
4540,-18.6875,42.75,-14.5,
4560,-18.375,39.1875,-22.125,
4580,-14.0625,38.1875,-27.3125,
4600,-13.75,36.375,-31.125,
4620,-16.6875,37,-34.75,
4630,-12.25,42,-38.4375,
4650,-5.8125,42.25,-39.375,
4670,-3.5625,42.4375,-42.0625,
4690,-1.4375,42.9375,-43.4375,
4710,1.5625,40.75,-46.5625,
4730,2.6875,37.8125,-50.375,
4750,10.1875,34.125,-53.1875,
4770,12.375,27.875,-55.0625,
4790,12.9375,23.4375,-58.6875,
4810,11.8125,16.375,-61,
4830,12.75,9.375,-62.875,
4850,13.6875,2.125,-62.125,
4870,16.5,-5.0625,-61.875,
4890,19.4375,-12.0625,-61.375,
4910,21.125,-16.625,-61.1875,
4930,23.5,-23.625,-57.625,
4950,27.5,-28.5,-52.875,
4970,29.75,-29.625,-49.5,
4990,33,-32.5,-43.625,
5010,40.8125,-38.5625,-34.9375,
5030,45.375,-38.0625,-33,
5050,45.4375,-40,-26.625,
5070,46.5625,-43.875,-21.0625,
5090,44.0625,-45.5625,-11.4375,
5110,43.125,-46.125,-4.875,
5130,40.3125,-46.3125,1.375,
5150,34.25,-47.3125,7.0625,
5170,33.375,-48.25,13.9375,
5190,27.9375,-49.9375,20.375,
5210,16,-51.875,24.5625,
5230,6.625,-52.5,26.875,
5250,7.4375,-54.3125,31.375,
5270,9.375,-53,36.8125,
5290,5.625,-49.5,42.4375,
5310,-1.9375,-43.3125,46.8125,
5330,1.625,-36.375,50.9375,
5350,9.25,-27.6875,55.3125,
5370,9.75,-21.6875,61.0625,
5390,6.0625,-15.0625,66.125,
5410,-2,-11.5,70.0625,
5430,-6.3125,-5.25,68.9375,
5450,-6.75,-2.375,70.6875,
5470,-7.1875,1.0625,71.4375,
5490,-19.1875,9.6875,66.6875,
5510,-14.375,13.4375,64.75,
5530,-19.9375,18,61.0625,
5550,-26,21.75,55.625,
5570,-24.5625,26.5625,53.25,
5590,-22.5625,31.25,49.5,
5610,-27,34.9375,45.3125,
5630,-28.125,38.0625,39.5,
5650,-22.0625,40.125,35.625,
5670,-20.375,41.1875,30.9375,
5690,-23,45.3125,22.3125,
5710,-23,48.1875,15.1875,
5730,-14.9375,49.125,9.8125,
5750,-14.1875,47.5,1.375,
5770,-18.875,44.6875,-8.1875,
5790,-7.8125,44.25,-14.6875,
5810,-3.5,44.0625,-23.625,
5830,-4.25,45.75,-29.3125,
5850,-0.875,45.375,-32.5,
5870,0.5,43.125,-38.3125,
5890,-4.75,39.375,-41.0625,
5910,-6.375,38.8125,-47.25,
5930,1.125,36.3125,-50.6875,
5950,1.4375,32.375,-53.5625,
5970,-3.9375,29.8125,-56.875,
5990,-0.6875,29.5625,-58,
6010,4.8125,25.375,-57.9375,
6030,9.125,23,-59.1875,
6050,9.125,18,-58.3125,
6070,13.125,11.8125,-54.25,
6090,16.8125,7.5625,-54.9375,
6110,17.1875,1.125,-53.5,
6130,19.75,-1.8125,-52.4375,
6150,26.6875,-6.5625,-47.9375,
6170,22.6875,-12.0625,-45.25,
6190,20.1875,-15.5625,-42.8125,
6210,25.25,-18,-39.9375,
6230,28.25,-24.375,-35.0625,
6250,26,-30.25,-30.5625,
6270,26.5625,-31,-28.0625,
6290,32.0625,-32.625,-25.375,
6310,34.5,-34.4375,-20.9375,
6330,28.3125,-38.875,-14.5,
6350,30.0625,-41.9375,-8.125,
6370,33.5625,-42.5,-3.1875,
6390,38.125,-44.375,2.4375,
6410,33.625,-44,6.3125,
6430,30.5625,-46.8125,10.5,
6450,25.875,-47,14.5,
6470,23.6875,-45.6875,18.625,
6490,20.3125,-44.5,24.25,
6510,16.5625,-45,30.5,
6530,9.9375,-41.0625,34.1875,
6550,12.3125,-37.5,38.3125,
6570,6.875,-33,43.125,
6590,3.25,-28.8125,46.75,
6610,1.9375,-21.3125,48.9375,
6630,2.3125,-15.8125,52.5,
6650,3.125,-12.5,56.4375,
6670,-1.9375,-6.6875,60.3125,
6690,-5.0625,0,60,
6710,-7.3125,4.375,59.8125,
6730,-9.875,9.8125,63.125,
6750,-10.625,15,63.125,
6770,-14.1875,19.0625,59.9375,
6790,-14.5625,23.75,57.75,
6810,-20.25,27.25,56.8125,
6830,-18.75,33.3125,51.25,
6850,-15.6875,35.6875,47.625,
6870,-15.125,37.125,43.875,
6890,-20.6875,39.1875,37.1875,
6910,-18.8125,41.625,31.0625,
6930,-13.1875,43.125,26.75,
6950,-11.5,45.1875,20.875,
6970,-13.1875,46.1875,14.8125,
6990,-14.1875,46.5625,9.25,
7010,-11.875,46,1.625,
7030,-13.4375,47.75,-5.0625,
7050,-7.8125,46.5,-10.75,
7070,-2.3125,45.625,-15.25,
7090,-1.6875,43.4375,-20.5625,
7110,-5.125,41.1875,-26.625,
7130,-4,39.3125,-30.3125,
7150,-2.3125,36.6875,-33.75,
7170,-1.1875,33.5,-38.25,
7190,0.9375,32.625,-41.9375,
7210,4,31,-45.125,
7230,3.1875,27.3125,-48.8125,
7250,1.9375,23.0625,-49.375,
7270,5.875,20,-52.25,
7290,7.8125,14.75,-52.875,
7310,10.125,12.6875,-52.25,
7330,8.9375,7.75,-51.375,
7350,11,1.9375,-50.125,
7370,11.375,-0.8125,-49.4375,
7390,8.875,-2.375,-48.0625,
7410,11.6875,-6.625,-43.25,
7430,15.1875,-12.75,-39.4375,
7450,12.625,-17.3125,-38.625,
7470,11.875,-21.1875,-36.8125,
7490,14.3125,-24.5625,-35.6875,
7510,17,-27.625,-31.75,
7530,19.3125,-31,-29,
7550,19.875,-35.625,-25.875,
7570,18.8125,-37.875,-26.0625,
7590,23.3125,-40.3125,-22.8125,
7610,27.3125,-41.0625,-20.4375,
7630,20.4375,-43.5625,-16.25,
7650,21.4375,-44.9375,-14.5625,
7670,22.75,-46.5,-10.75,
7690,21,-48.8125,-6,
7710,14.5,-52.0625,-1.75,
7730,14.1875,-52.9375,2.1875,
7750,13.75,-53.5,9.4375,
7770,12.3125,-53.0625,17.6875,
7790,13.3125,-51.5,24.3125,
7810,11.5,-46.625,30.875,
7830,10.25,-39.5625,38.8125,
7850,9.3125,-31.1875,46.625,
7870,5.4375,-23.1875,49.9375,
7890,7,-18.6875,55.5625,
7910,9,-6.625,58.25,
7930,8.6875,-6.5,64.1875,
7950,1.5,-2.5625,64.8125,
7960,-3.1875,-0.125,66.1875,
7980,-5.25,4.375,67.75,
8000,-10.125,10,68.625,
8020,-14.8125,17.75,64.5,
8040,-13.25,24.3125,64.5625,
8060,-4.3125,27.75,66.375,
8080,-6.5,30.8125,62.125,
8100,-6.375,34.3125,54.75,
8120,-3.3125,38.125,48.25,
8140,-8.375,39.3125,41.1875,
8160,-12.4375,41.9375,33.3125,
8180,-6.375,45,25.3125,
8200,-1.5,46.0625,18.3125,
8220,-2.25,43.875,10.3125,
8240,-6.0625,46.625,0.75,
8260,-1.8125,49.375,-4.25,
8280,1.3125,50.1875,-8.5,
8300,-0.125,53.25,-13.0625,
8320,-0.8125,53.875,-17.0625,
8340,-1.5625,54.5,-20.75,
8360,4.5625,55.4375,-23.0625,
8380,8.3125,53.375,-26.3125,
8400,4.75,48.375,-31.6875,
8420,-1.25,42.875,-37.5625,
8440,1.4375,39.75,-40.4375,
8460,2.375,35.75,-43.25,
8480,-4.3125,28.6875,-47.25,
8500,-6.25,21.625,-51.0625,
8520,-4.1875,15.3125,-53.125,
8540,-1.5625,11.4375,-55.0625,
8560,-4.4375,7.0625,-57.9375,
8580,-3.3125,0.4375,-55.9375,
8600,4.875,-4.0625,-58.75,
8620,8.1875,-9.375,-59,
8640,11.4375,-12.9375,-58,
8660,15.375,-17,-56.4375,
8680,14.9375,-25.25,-53.875,
8700,16.1875,-29.75,-52,
8720,22.5,-30.625,-49.9375,
8740,29.0625,-34.25,-42.75,
8760,29.4375,-34.4375,-36.75,
8780,30.375,-37.5625,-31.8125,
8800,30.6875,-39,-26.8125,
8820,31.625,-36.5625,-22.5625,
8840,29.3125,-39.625,-16.8125,
8860,27.3125,-38.6875,-11.6875,
8880,28.9375,-38.3125,-5.375,
8900,28.75,-38.125,2.1875,
8920,25.75,-40.5625,8.9375,
8940,15.8125,-40.375,15.125,
8960,7.9375,-42.25,21.8125,
8980,2.875,-44.1875,28.3125,
9000,0,-41.75,31.125,
9020,-7.1875,-38.125,37.0625,
9040,-2.25,-34.1875,43.625,
9060,-1.3125,-30,49.5625,
9080,-5.3125,-26,54.25,
9100,-7.375,-18.6875,56.625,
9120,-3.875,-18.625,62.25,
9140,-6.125,-16.4375,64.875,
9160,-12.1875,-10.0625,66.0625,
9180,-4.6875,-8.75,66.8125,
9200,-5.3125,-4.5,68.375,
9220,-6.8125,1.625,66.6875,
9240,-13.1875,6.125,64.9375,
9260,-14.1875,12.625,62.625,
9280,-10.6875,14.6875,61.1875,
9300,-12.3125,20.375,55.8125,
9320,-12.5,24.5625,50.6875,
9340,-13.8125,27.125,45.75,
9360,-13.6875,30.25,38.375,
9380,-15.3125,33.6875,32.125,
9400,-13,34.75,26.4375,
9420,-14.1875,37.625,21.0625,
9440,-11.75,41.1875,15.4375,
9460,-11.5625,42.8125,10.0625,
9480,-9.1875,45.75,5.1875,
9500,-7.1875,49.125,1.9375,
9520,-3.75,52.875,-3.25,
9540,3.75,53.5,-6.25,
9560,0.75,53.0625,-11.625,
9580,-3.8125,52.125,-18.75,
9600,0.875,52.8125,-22,
9620,7.0625,52.125,-24.9375,
9640,4.4375,48.625,-30.0625,
9660,0.625,46.1875,-36.25,
9680,0.3125,40.5625,-39.3125,
9700,-2.0625,37,-43.125,
9720,-0.0625,30.875,-47.75,
9740,-0.5,24.125,-51.5625,
9760,1.3125,18.625,-53.875,
9780,-2.5,14.6875,-59.0625,
9800,-2.25,8.6875,-60.5,
9820,5.125,2.1875,-61.3125,
9840,9.3125,-4.8125,-61.875,
9860,9.25,-10.6875,-61.9375,
9870,10.1875,-14.9375,-62.8125,
9890,17.0625,-20.25,-60.125,
9910,22,-25.3125,-56.6875,
9930,25.5,-29.875,-52.25,
9950,33.0625,-33.5625,-51.875,
9970,36.8125,-37.4375,-49.0625,
9990,39.4375,-41.0625,-45,
10010,35.3125,-47.625,-39.75,
10030,35.0625,-47.3125,-33.625,
10050,38.875,-47.4375,-24.4375,
10070,42.5,-46.75,-16.5625,
10090,45.6875,-48.25,-7.9375,
10110,36.8125,-47.5625,-0.875,
10130,27.9375,-49.5,5.4375,
10150,25.3125,-47.75,11.3125,
10170,26.5625,-46.1875,21.25,
10190,23.375,-42.75,28.1875,
10210,13.4375,-37.9375,33.625,
10230,15,-32.9375,40.25,
10250,22.4375,-27.625,49.3125,
10270,24.8125,-17.375,53.75,
10290,23,-9.625,58.25,
10310,24.8125,-2.0625,61.5,
10330,28.25,4.875,61.875,
10350,22.5,8.4375,64.75,
10370,18.1875,9.1875,66.375,
10390,11.875,10.1875,67.8125,
10410,3.75,13.125,66,
10430,-5.4375,17.25,65.375,
10450,-13.125,16.25,65,
10470,-24.9375,18.0625,59.1875,
10490,-27.3125,17,57.5625,
10510,-23,17.625,56.1875,
10530,-27.75,21.125,50.9375,
10550,-33,23.25,45.5625,
10570,-27.1875,24.1875,40.4375,
10590,-21.3125,27.1875,34.5,
10610,-15.75,30.5625,28.625,
10630,-14.1875,33.1875,21.875,
10650,-12.8125,33.375,15.625,
10670,-15.0625,37,9.625,
10690,-11.6875,40.75,5,
10710,-12.1875,42.75,-1.75,
10730,-11.0625,43.6875,-8.1875,
10750,-7.375,43.8125,-14.5625,
10770,-7.375,44.875,-20.4375,
10790,-9.875,44.625,-24,
10810,-10.9375,43.3125,-27.75,
10830,-10,43.25,-29.6875,
10850,-5.9375,43.9375,-32.9375,
10870,-4.6875,42,-36.1875,
10890,-3.125,40.1875,-39.4375,
10910,-0.4375,39.1875,-42.9375,
10930,4.9375,36.0625,-44.125,
10950,5.4375,32.875,-46,
10970,3.625,26.875,-47.1875,
10990,5,23,-50.5625,
11010,5.1875,17.0625,-50.8125,
11030,4.6875,6.6875,-51.875,
11050,3.125,-0.125,-53.25,
11070,6.5625,-5.125,-54.625,
11090,8.1875,-12.875,-54.3125,
11110,13.625,-24,-54.5625,
11130,17.5,-31.6875,-56.8125,
11150,9.3125,-34.6875,-54.6875,
11170,11.8125,-35.3125,-53.4375,
11190,23.25,-41.5,-45.5625,
11210,33.6875,-46.1875,-38.4375,
11230,29.8125,-48.375,-36.5625,
11250,27.625,-48.6875,-35.875,
11270,33.9375,-53.25,-28.625,
11290,37.875,-56.0625,-20.9375,
11310,34.75,-56.25,-16.125,
11330,36.125,-55.9375,-9.8125,
11350,36.6875,-55.75,-3.25,
11370,31.9375,-56.75,4.9375,
11390,28.9375,-56.25,12,
11410,20.0625,-53.3125,18,
11430,20.25,-51.4375,24.375,
11450,20.75,-47.375,32,
11470,19.5,-39,38.75,
11490,20.25,-33.6875,46.4375,
11510,16.3125,-27.6875,54.125,
11530,10.5,-21.875,58.5625,
11550,10.4375,-15.625,62.1875,
11570,15.375,-10.5,67.875,
11590,10.5625,-3.8125,71.3125,
11610,-5.1875,4.75,71.5,
11630,-8.25,8.1875,72,
11650,-6.375,11.5625,73.9375,
11670,-11.125,14.75,73.75,
11690,-20.375,21.75,68.6875,
11710,-22,24.375,66.75,
11730,-23.6875,26.25,61.375,
11750,-24.6875,28.1875,54.75,
11770,-23.25,31.5,49.1875,
11790,-21.125,36.625,42.375,
11810,-15.75,37.4375,38.125,
11830,-15.375,38.3125,32.25,
11850,-17.375,43.8125,23.0625,
11870,-11.0625,47.375,17.125,
11890,-9,48.0625,11.5625,
11910,-12.9375,47.5,3.375,
11930,-21,48,-4.0625,
11950,-24.3125,45.8125,-9.0625,
11970,-21.625,41.8125,-15.6875,
11990,-22.6875,39.875,-21,
12010,-20,43.3125,-27.6875,
12030,-14.375,43.5,-29.625,
12050,-13,43.5,-34.75,
12070,-11.125,44.9375,-40.375,
12090,0.25,44,-43.25,
12110,-2.1875,40.6875,-45.3125,
12130,-2.25,39.6875,-50.4375,
12150,8.3125,36.5625,-51.0625,
12170,8.5,29.75,-53.5625,
12190,6.625,22.625,-57.375,
12210,3.5625,19.1875,-61,
12230,11.8125,11.0625,-59.625,
12250,7.25,2.6875,-60.875,
12270,5,-2.3125,-61.9375,
12290,8.9375,-7.9375,-61.25,
12310,10.5,-14.875,-59,
12330,10.9375,-20.6875,-57.625,
12350,12.5,-26.4375,-56.1875,
12370,19,-33.4375,-52.875,
12390,26.5625,-38.875,-48.875,
12410,22.875,-45.875,-45.1875,
12430,23.8125,-46.9375,-45.0625,
12450,29.9375,-50.9375,-40.1875,
12470,34.125,-52.25,-32.75,
12490,28.25,-55.4375,-23.8125,
12510,26,-58.3125,-15.625,
12530,27.375,-58.4375,-10.25,
12550,29.25,-58.5,-4.3125,
12570,21.5,-59.8125,3.625,
12590,14.4375,-60.25,10.0625,
12610,14.1875,-60.4375,16.75,
12630,22,-54.375,21.9375,
12650,24.75,-47.3125,32.0625,
12670,20.4375,-44.9375,43.125,
12690,18.875,-38.25,51.8125,
12710,18.5625,-28.4375,59.0625,
12730,22.8125,-23.5625,67.25,
12750,11.4375,-18.6875,73.8125,
12770,3.375,-10.1875,76.5,
12790,4,-3.8125,79.5625,
12810,0.875,2.5625,81.75,
12830,-13.375,13.125,82.3125,
12850,-14.1875,16.6875,81,
12870,-14.1875,17.625,75.9375,
12890,-11.5625,23.6875,71.75,
12910,-17.8125,25.6875,67.0625,
12930,-22.5625,30.125,56.1875,
12950,-22.625,31.6875,45.6875,
12970,-18.625,33,36,
12990,-11.875,38.125,26.4375,
13010,-7.875,42.4375,16.5,
13030,-9.125,43.8125,10.0625,
13050,-11.1875,44.8125,5.1875,
13070,-12.25,50.375,-0.9375,
13090,-11.0625,53.6875,-2.0625,
13110,-10.625,57.75,-6.9375,
13130,-9.4375,59.5625,-12.1875,
13150,-6.8125,62.25,-16.6875,
13170,-7.25,59.0625,-21.125,
13190,-8.125,56.3125,-26.6875,
13200,-10.0625,51.625,-29.9375,
13220,-6.5625,47.625,-37.8125,
13240,-10.4375,40.1875,-41.6875,
13260,-12.8125,32.0625,-47.9375,
13280,-15.5625,24.25,-52.4375,
13300,-13.625,19.875,-58.5625,
13320,-2.25,13.5625,-58.75,
13340,1.25,5.75,-63,
13360,5.4375,-2.125,-67.6875,
13380,14.6875,-7.0625,-67.8125,
13400,24.1875,-10.375,-67.9375,
13420,25.125,-19,-62.6875,
13440,30.3125,-21.125,-62.875,
13460,36,-25.4375,-58.8125,
13480,43.9375,-27.8125,-53.9375,
13500,40.0625,-30.4375,-47.0625,
13520,39.5625,-33.875,-41.875,
13540,43.875,-39.1875,-35.875,
13560,50.75,-41.3125,-31.125,
13580,43.625,-43.0625,-22.125,
13600,30.5625,-47.4375,-16.25,
13620,21.625,-52.875,-9.625,
13640,28.3125,-54.1875,-3.1875,
13660,34.8125,-51.875,6.375,
13680,36.5,-47.6875,15.875,
13700,28.875,-41.0625,25.75,
13720,23.6875,-42.8125,36.5625,
13740,20.875,-41,43.1875,
13760,13.0625,-37.875,52.375,
13780,17.3125,-32.125,58.3125,
13800,11.25,-28.625,65.5,
13820,-1.625,-23.25,70.8125,
13840,-3.25,-21.875,74.125,
13860,-8.0625,-16.3125,75.25,
13880,-5.6875,-5.5625,78.875,
13900,-3.5,8.5625,81.9375,
13920,-1.9375,15.3125,83.5625,
13940,-3.0625,19.375,77.25,
13960,-1.25,21.875,71.125,
13980,2.125,24.5,64.8125,
14000,1.4375,25.5625,59.625,
14020,-4.4375,31.875,50.4375,
14040,-5.4375,36.875,44.875,
14060,-8.3125,39.125,40.125,
14080,-13.75,42.5625,30.5625,
14100,-20.125,45.1875,25.0625,
14120,-19.25,43.5625,19.6875,
14140,-27.3125,39.5625,13.5,
14160,-37.375,39.0625,4.4375,
14180,-39,39.875,-1.0625,
14200,-30.4375,40.3125,-3.1875,
14220,-30.875,41,-6.8125,
14240,-34.3125,40.8125,-10.5,
14260,-30.625,43.875,-15.6875,
14280,-25.75,44.8125,-18,
14300,-27.3125,45.75,-23.125,
14320,-25.375,45.5,-27.375,
14340,-16.5,45.125,-30.4375,
14360,-19.5625,42.3125,-36.1875,
14380,-19.75,38.875,-42.4375,
14400,-7.5,35.75,-47,
14420,-9.3125,34.3125,-51.8125,
14440,-10.75,30.3125,-56.8125,
14460,-0.875,25.625,-59.0625,
14480,1.3125,20.75,-62.625,
14500,-7,15.5,-64.875,
14520,0.5625,8.1875,-63,
14540,3.875,-1.125,-63.875,
14560,10.125,-8.5625,-67.375,
14580,20.75,-12,-66.3125,
14600,21,-19.1875,-64.375,
14620,18.9375,-26.3125,-61.125,
14640,28.75,-31.6875,-59.125,
14660,40.5,-31.75,-56.125,
14680,43.5625,-36.9375,-49.75,
14700,46.6875,-41.875,-43.875,
14720,49.5625,-47.5625,-37.625,
14740,49.5,-46.5625,-30.0625,
14760,54.5625,-50.25,-19.8125,
14780,57.125,-52,-12,
14800,53.1875,-48.9375,-3,
14820,47,-47.25,7.375,
14840,40.75,-45.75,16.1875,
14860,32.8125,-43.875,24.5,
14880,33.9375,-41,32.75,
14900,32.625,-39.875,43.1875,
14920,21.625,-35.625,51.5625,
14940,16.3125,-33.4375,58.0625,
14960,13.6875,-26.0625,62.25,
14980,18.3125,-22.1875,69.0625,
15000,11.3125,-16,71.1875,
15020,1.6875,-11.3125,75.0625,
15040,-2.0625,-6.1875,76.9375,
15060,-4.5,0.4375,76.5,
15080,-13.875,8.375,74.8125,
15100,-14.1875,10.6875,78.375,
15120,-22.4375,18.25,72.3125,
15130,-26.5,18.875,66.6875,
15150,-29.3125,19.625,62.5,
15170,-29.375,30.25,58.3125,
15190,-21.25,43.3125,48.375,
15210,-15.125,48.5625,38.5625,
15230,-21.9375,44.125,29.3125,
15250,-30.125,43.5625,19.625,
15270,-31.9375,40.9375,11.1875,
15290,-27.125,41.75,4.8125,
15310,-32.75,46,-3.5625,
15330,-31.6875,47.9375,-13,
15350,-30.5,53.5,-17.4375,
15370,-24.0625,53.0625,-20.875,
15390,-23.5625,56.5,-28.625,
15410,-22.875,56.3125,-34.125,
15430,-15.5,54,-40.375,
15450,-13.1875,52.5,-45.375,
15470,-12.75,52.25,-48.5,
15490,-7.5,49.5625,-52.9375,
15510,0.625,43.125,-53.0625,
15530,-2.1875,36.125,-54.4375,
15550,-0.875,30.625,-58.1875,
15570,1.6875,25.8125,-59.0625,
15590,1.75,17.75,-60.125,
15610,5,8.6875,-62.75,
15630,10.875,1.6875,-66.0625,
15650,15.4375,-5.875,-68.6875,
15670,20.5625,-8.5625,-69.0625,
15690,28.5,-17.6875,-63.25,
15710,35.3125,-21.8125,-62.1875,
15730,40.0625,-25.0625,-60.6875,
15750,45.75,-31.5,-56.8125,
15770,52.3125,-36.6875,-49.5,
15790,48.0625,-41.375,-43.25,
15810,44.1875,-42.625,-40.1875,
15830,50.625,-46.6875,-33.875,
15850,55.625,-48.625,-25.5625,
15870,52,-48.3125,-19.125,
15890,47.3125,-48.75,-12.625,
15910,49.75,-47.75,-5.3125,
15930,48.125,-46.4375,3.5625,
15950,41.6875,-42.5,10.8125,
15970,34.3125,-40.25,20.3125,
15990,27,-40.6875,29.875,
16010,18.0625,-39.4375,38.625,
16030,11.125,-37.5625,47.5625,
16050,11.75,-31.1875,53.3125,
16070,5.125,-23.25,61.4375,
16090,-6.625,-18.4375,71.1875,
16110,-7.125,-17.9375,76.8125,
16130,-2.1875,-11.375,77.5625,
16150,-6.4375,-7.0625,82.375,
16170,-12.375,-2.1875,84.6875,
16190,-14.375,1.1875,85.375,
16210,-13,8.375,80.5,
16230,-13.8125,14.4375,80,
16250,-10.8125,16.9375,76.875,
16270,-11.125,21.6875,73.3125,
16290,-14.25,28.5,69.125,
16310,-15.75,35.75,62.25,
16330,-14.625,39.25,56.9375,
16350,-15.4375,38.5,49.125,
16370,-20.875,40.75,39.25,
16390,-15.25,43.1875,29.6875,
16410,-16.6875,42.3125,19.0625,
16430,-22.5,41.4375,10.25,
16450,-19.6875,41.75,0.9375,
16470,-10.875,41.9375,-7.1875,
16490,-7.3125,43.6875,-13.875,
16510,-3.625,42.9375,-20.125,
16530,-3.375,41.5625,-26.375,
16550,-2.4375,40.8125,-30.625,
16570,2.1875,40.75,-35.25,
16590,6.9375,39.125,-36.875,
16610,4.4375,38.3125,-40.8125,
16630,7.9375,32.75,-43.8125,
16650,10.375,33.9375,-47.1875,
16670,13.75,28.875,-46.375,
16690,12.4375,23.0625,-47.25,
16710,13,17.75,-48.4375,
16730,19,12.125,-49.3125,
16750,19.625,4.75,-49.6875,
16770,23.25,-5.375,-50.75,
16790,22.375,-12.4375,-51.9375,
16810,16.375,-18.625,-49.9375,
16830,23.4375,-26.375,-47.5625,
16850,25.375,-31.1875,-48.375,
16870,30.375,-34.6875,-44.75,
16890,38.875,-35.6875,-39.625,
16910,43.75,-39.0625,-35.9375,
16930,43.875,-43.75,-33.25,
16950,47.3125,-46.625,-28.625,
16970,50.3125,-47.25,-23.25,
16990,49.625,-47.6875,-17.5,
17010,42.9375,-45.875,-13.375,
17030,39.125,-48.0625,-7.5,
17050,33.6875,-47.625,-3.5,
17070,34,-44.625,0.3125,
17090,35.25,-39.5,5,
17110,33.875,-38.25,12.9375,
17130,22.75,-34.5625,17.25,
17150,14.8125,-33.375,21.125,
17170,14.5625,-32.6875,25.1875,
17190,11.875,-28.8125,32.5,
17210,11.125,-23.75,38,
17230,-2.8125,-20.125,43.875,
17250,-11.5,-15.375,47.625,
17270,-12.125,-11.6875,51.625,
17290,-10,-6.5625,55.125,
17310,-11.75,-1.25,59.1875,
17330,-14.875,4.8125,60.6875,
17350,-24.3125,12.4375,58.25,
17370,-22.6875,14.75,59.5,
17390,-16.75,18.75,59.75,
17410,-13.5625,23.25,58.125,
17430,-14.5625,27,50.4375,
17450,-17.75,25.9375,47.4375,
17470,-12.0625,31.25,42.9375,
17490,-10.3125,35.6875,40.4375,
17510,-10.625,40.375,34.875,
17530,-12.5,42.1875,29.625,
17550,-12.625,44.875,25.125,
17570,-10.8125,46.8125,19.6875,
17590,-12.25,48.625,12,
17610,-12.75,50.625,4.9375,
17630,-8.875,50.4375,-1.125,
17650,-6.5625,48.125,-6.4375,
17670,-7.5625,49.5625,-14,
17690,-5.75,49.3125,-20.5625,
17710,-2.875,46.5,-24.5,
17730,0.625,44.25,-30.0625,
17750,1.5,43.0625,-35.375,
17770,5.0625,37.5625,-36,
17790,2.75,32,-41.625,
17810,1.1875,26.5625,-45.0625,
17830,6.3125,20.5625,-46.1875,
17850,9.25,17.625,-47.6875,
17870,9.25,11.625,-48.1875,
17890,9.0625,4.8125,-48.25,
17910,10.5,3.9375,-50.75,
17930,18.5,1.375,-48.0625,
17950,22.0625,-4.3125,-44,
17970,17.5,-10.4375,-43.75,
17990,14.75,-15.1875,-44.5,
18010,24.875,-16.4375,-44.5625,
18030,33.75,-19.9375,-40.4375,
18050,34.875,-26.875,-37.6875,
18070,34.0625,-36.875,-36.125,
18090,32.8125,-40.5,-31.5625,
18110,26.625,-40.25,-22.6875,
18130,27.625,-40.0625,-17.125,
18150,27,-42.25,-11.1875,
18170,28.625,-45.25,-7,
18190,23.375,-46.375,-4,
18210,22.0625,-45.5625,1.625,
18230,25.5625,-45,6.9375,
18250,22.375,-47.125,11,
18270,19.25,-48.625,17.0625,
18290,18.0625,-46.6875,24.6875,
18310,18.75,-43.4375,33,
18330,14.1875,-40.9375,39.5,
18350,12.375,-36.0625,44.875,
18370,7.75,-29.3125,52.375,
18390,0.3125,-20.4375,58.0625,
18410,-2.0625,-14.5,62.125,
18430,2.875,-8.5625,66.4375,
18450,-1.875,-1.5625,70.75,
18460,-6.3125,-0.3125,73.9375,
18480,-14.5625,2.5,69.125,
18500,-16,4.25,66.875,
18520,-19.1875,10.875,66.6875,
18540,-17.4375,17.75,65.1875,
18560,-19.5,22.4375,58.75,
18580,-21.625,26.8125,55.125,
18600,-22.6875,35,50.125,
18620,-17.125,36.375,46.375,
18640,-16.125,39.75,39.625,
18660,-15.125,41.25,36.5,
18680,-18.3125,45.5625,29.5,
18700,-14.25,45.3125,23.6875,
18720,-12.25,43.8125,15.625,
18740,-13.375,46.5,8.3125,
18760,-14.4375,47.4375,2.5,
18780,-16.1875,46.0625,-5.3125,
18800,-14.0625,44.1875,-14,
18820,-9.0625,41.375,-18.5,
18840,-6.75,41.375,-27.25,
18860,-7.75,39.3125,-32.1875,
18880,-2.9375,36.8125,-39.0625,
18900,-0.125,32.4375,-42.6875,
18920,4.625,31.875,-47.9375,
18940,2.75,29.0625,-49.6875,
18960,3.125,23.875,-51.6875,
18980,3.375,18.8125,-55.8125,
19000,6.0625,12.9375,-56.25,
19020,7.125,9.3125,-58,
19040,4.5625,2.9375,-58.0625,
19060,10.25,-3.6875,-56.6875,
19080,14.25,-10.125,-55.125,
19100,14.875,-12.9375,-54.5625,
19120,15.875,-19,-49.25,
19140,17.6875,-24.5625,-48.5625,
19160,20.1875,-28.875,-47.5625,
19180,29.375,-28.5625,-44.625,
19200,33.1875,-30.8125,-35.75,
19220,30.0625,-33.9375,-30.75,
19240,30.1875,-36.625,-28.5,
19260,35.1875,-39.5,-23.375,
19280,40.3125,-42,-15.375,
19300,32,-43.1875,-9.0625,
19320,30.75,-44.6875,-4.75,
19340,36.5625,-43.8125,-1.125,
19360,36.3125,-43,7.0625,
19380,31.25,-44.4375,14.75,
19400,28.8125,-40.875,17.5,
19420,35.3125,-39.6875,24.0625,
19440,40.625,-36.875,29.3125,
19460,31.875,-30.75,36.5,
19480,17.0625,-27,44.5,
19500,10.5625,-26,50.5,
19520,7,-19.25,55.75,
19540,9.125,-11.0625,62.3125,
19560,-5.0625,0.5,68.375,
19580,-14.1875,1.1875,70.25,
19600,-16.5625,7.1875,67.8125,
19620,-13.0625,9.0625,69.875,
19640,-15.6875,13.9375,69.8125,
19660,-29.1875,17.875,64.8125,
19680,-27.1875,23.125,54.875,
19700,-21.6875,29.5625,50.0625,
19720,-6.5625,34.125,45.75,
19740,-6.1875,36,41.4375,
19760,-10.375,40.3125,31.5625,
19780,-9.1875,41.875,26.4375,
19800,-4.9375,44.9375,21.4375,
19820,-7.625,46.5,16,
19840,-14.9375,49.5,9.5,
19860,-10.9375,51.8125,4.0625,
19880,-8.8125,53.375,-2.125,
19900,-13.1875,53.8125,-9.0625,
19920,-16.3125,54.1875,-11.4375,
19940,-11.75,54.25,-14.4375,
19960,-9.1875,55,-19.25,
19980,1.6875,55.375,-24.5,
20000,3.25,49.4375,-26.9375,
20020,-14.3125,42.375,-32.4375,
20040,-17.625,38.75,-38.625,
20060,-5.6875,36.75,-42.8125,
20080,5.5625,30,-46.375,
20100,-14.4375,18.3125,-54.0625,
20120,-13.625,12.25,-59.875,
20140,-7.9375,8.9375,-62.5,
20160,7.75,1.8125,-60.5,
20180,11.125,-7.9375,-65,
20200,13.0625,-17.5,-66.625,
20220,12.8125,-24.625,-66.8125,
20240,28.875,-31.125,-62.5,
20260,37.3125,-35.9375,-58.5625,
20280,38.3125,-43.8125,-54.9375,
20300,33.5,-50.625,-53.5625,
20320,34.8125,-54.375,-50,
20340,43.25,-57.875,-41,
20360,44.75,-60.625,-30.0625,
20370,38.1875,-63.25,-23.125,
20390,30.6875,-67,-15.3125,
20410,33.9375,-64.5625,-9.0625,
20430,34.625,-62.25,0.4375,
20450,31.25,-57.0625,9.1875,
20470,32.125,-51.25,21.6875,
20490,29,-41.25,31.25,
20510,22.0625,-37.9375,40.6875,
20530,20.9375,-31.6875,47.8125,
20550,22.5,-26.875,56.625,
20570,11.3125,-14.75,62,
20590,4.9375,-7.9375,65.1875,
20610,7.1875,-1.3125,68.125,
20630,3.0625,4.4375,73.3125,
20650,-8.625,10.5625,73.75,
20670,-16.25,14.1875,70.9375,
20690,-24,17.75,67.75,
20710,-27.5,20.375,67.1875,
20730,-27.25,23.6875,63.8125,
20750,-25.875,27.0625,59.6875,
20770,-27.625,33.4375,54.75,
20790,-20.5,38.875,50.1875,
20810,-16.4375,42.25,46.9375,
20830,-18.25,44.75,40.9375,
20850,-19.8125,45.8125,30.5625,
20870,-15.5,46.3125,24.0625,
20890,-14.625,47.1875,16.375,
20910,-15.5,46.5625,7.4375,
20930,-15.125,48.9375,-1,
20950,-9.625,48.5,-9.9375,
20970,-8.875,46.0625,-16,
20990,-10.6875,44,-21.75,
21010,-11.1875,44.125,-25.5,
21030,-7.875,46.1875,-29.5,
21050,-6.3125,45.4375,-31.6875,
21070,-5.8125,45.25,-36.75,
21090,-1,47.375,-39.0625,
21110,1.75,47.5,-40.6875,
21130,1.9375,43.625,-44.125,
21150,-4.875,36.25,-47.125,
21170,-8.625,33.625,-50.375,
21190,-5.1875,23.5,-47.6875,
21210,-7.625,13.9375,-50.6875,
21230,-10,3.25,-53.4375,
21250,0.0625,-5.375,-57.375,
21270,4.9375,-9.25,-60.5,
21290,16.125,-17.0625,-58.1875,
21310,20.625,-28.1875,-56.6875,
21330,20.8125,-36.25,-55.3125,
21350,20.625,-39.0625,-54.9375,
21370,26.375,-41.5,-49.8125,
21390,36.375,-45.75,-45.0625,
21410,36.5,-52.8125,-38.125,
21430,34.375,-53.125,-34.6875,
21450,31.0625,-57.3125,-27.25,
21470,37.125,-59.625,-24.3125,
21490,33.1875,-60.0625,-19,
21510,33.4375,-57.9375,-11.5625,
21530,39.8125,-54.75,-1.0625,
21550,36.9375,-50.625,4,
21570,31.5,-48.5625,8.4375,
21590,32.4375,-44.0625,13,
21610,34.1875,-41.9375,20.375,
21630,19.875,-37.0625,27.0625,
21650,13.3125,-34.8125,34.0625,
21670,12.375,-31.4375,39.4375,
21690,14.25,-25.8125,45.8125,
21710,13.625,-21.4375,51.875,
21730,7.375,-15.625,53.75,
21750,3.6875,-8.1875,56.875,
21770,-2.25,-4.375,59.1875,
21790,-3.5,-2.375,59.9375,
21810,-1.3125,5,62,
21830,-6,12.0625,61.0625,
21850,-13.25,15.5,59,
21870,-18.4375,20.5625,52.5,
21890,-18.6875,30.25,49.5,
21910,-13.6875,38.3125,47.4375,
21930,-16.5625,41.6875,43.3125,
21950,-16.4375,40.1875,40.875,
21970,-19,43.75,36.125,
21990,-15.125,45.125,32.1875,
22010,-12.1875,48.4375,27.8125,
22030,-14.25,49.5,21.375,
22050,-18.375,50.9375,16.5,
22070,-16.6875,54.4375,12.6875,
22090,-11.5625,58.8125,5.6875,
22110,-6.375,56.625,1.4375,
22130,-6.125,55.6875,-7.25,
22150,-8.75,56.75,-13.0625,
22170,-8.9375,56.25,-18.5,
22190,-8.9375,50.5,-24.8125,
22210,-5.1875,46.25,-31.5625,
22230,-5.8125,43.0625,-37.875,
22250,-3.8125,39.625,-43.625,
22270,-4.5625,35.625,-48,
22290,-1.6875,29.4375,-52.9375,
22310,-2.125,26.8125,-57.9375,
22330,3.5,23.5,-60,
22350,-1.1875,15.4375,-60.5625,
22370,0.4375,8.0625,-64.875,
22390,7.5,4.1875,-68.4375,
22410,14.6875,-0.5,-66.25,
22430,17.875,-8.8125,-61.0625,
22450,14.25,-17.8125,-63,
22470,16,-25.3125,-63.25,
22490,21.1875,-31.0625,-57.8125,
22510,24.75,-33.25,-53.4375,
22530,30.0625,-36.375,-49.0625,
22550,33.3125,-41.25,-46.125,
22570,41.5625,-43.5625,-39.75,
22590,41.125,-44.875,-30.875,
22610,38.3125,-46.25,-22.25,
22630,40.375,-47.625,-14.25,
22650,43.9375,-51.25,-7.4375,
22670,36,-51.0625,-1.25,
22690,24.1875,-49.875,6.8125,
22710,22.75,-48.625,15.0625,
22730,24.4375,-50.375,26.6875,
22750,10.375,-46.5,33.9375,
22770,4.0625,-45.75,40.9375,
22790,2.3125,-42.5625,46.8125,
22810,5.4375,-37.5,53.9375,
22830,10.125,-31.875,57.3125,
22850,5.125,-28.0625,58.625,
22870,4.875,-23.125,62.6875,
22890,7.8125,-17.4375,64.8125,
22910,7.9375,-10.375,67.1875,
22930,4.1875,-6.4375,70.25,
22950,-1.6875,-2.1875,70,
22970,-0.875,5.9375,69.0625,
22990,-3.75,10.9375,68.0625,
23010,-10,11.9375,67.8125,
23030,-13.375,15.375,63.625,
23050,-22,19.125,57.9375,
23070,-27.375,24.125,52.375,
23090,-23,31.125,48.9375,
23110,-17.4375,35.875,45.25,
23130,-21.5,40.5,36.6875,
23150,-27.25,44.5625,28,
23170,-19.4375,49.5625,21.375,
23190,-18.1875,52.1875,12.75,
23210,-13.75,51.375,4.0625,
23230,-13.875,52.4375,-4.9375,
23250,-4.3125,55.125,-13.25,
23270,-3.1875,56.1875,-19.875,
23290,-3.0625,55.875,-28.5625,
23310,0.5625,54.4375,-33.4375,
23330,2.625,52.4375,-38.5,
23350,5.0625,50.75,-44.1875,
23370,6.5,48.25,-47.875,
23390,9,43.5,-52.3125,
23410,5.75,37.9375,-54.6875,
23430,4.3125,30.875,-57.1875,
23450,3,23.5625,-59.375,
23470,8.8125,17.8125,-61.125,
23490,7.6875,10.875,-60.5,
23510,5.125,2.9375,-60.375,
23530,2.75,-3.25,-60.25,
23550,11.3125,-7.9375,-57.9375,
23570,19.3125,-11.8125,-56.25,
23590,22.9375,-20.9375,-49.9375,
23610,14.125,-29.0625,-50.125,
23630,17.25,-32.5,-47.625,
23650,24.625,-34,-42,
23670,32.5,-36.875,-32.5,
23690,37.5625,-39.0625,-25.4375,
23710,35.4375,-42.8125,-23.75,
23720,39.0625,-44.6875,-18.625,
23740,34.0625,-45.0625,-10.6875,
23760,27.5625,-47.5625,-3.4375,
23780,25.125,-47.5625,2.6875,
23800,23.375,-47.9375,10.1875,
23820,21.5,-47.5,19.1875,
23840,7.75,-45.75,23.75,
23860,0.8125,-44.375,30.0625,
23880,3.625,-41.625,36.125,
23900,5.0625,-36.625,42.375,
23920,-0.6875,-29.75,46.9375,
23940,-1.5625,-27.125,53.875,
23960,1.4375,-18.8125,55.75,
23980,6.4375,-13.1875,59.75,
24000,9.875,-8.25,61.125,
24020,3.625,-3.625,62.375,
24040,-5.1875,2.3125,63.875,
24060,-8.5,6.9375,63.3125,
24080,-9.3125,14.125,63.125,
24100,-11.125,20.5625,63.5625,
24120,-21.0625,24.1875,61.5625,
24140,-25.5625,29.125,57.1875,
24160,-25.375,34.75,53.625,
24180,-19.875,36.875,48.5625,
24200,-21.75,38.125,42.1875,
24220,-25.8125,39.125,34,
24240,-22.875,41.875,25.5,
24260,-16.125,43.125,19.5625,
24280,-16.8125,44.5,11.375,
24300,-17.5,44.8125,1.5,
24320,-17.125,44.3125,-4.6875,
24340,-15.875,44.8125,-12.6875,
24360,-8.5625,45.875,-19.6875,
24380,-7.3125,45.1875,-26,
24400,-5.1875,43.5,-31.875,
24420,-1.6875,42.625,-38.375,
24440,3.875,40.25,-41.3125,
24460,3.125,38.875,-47.625,
24480,0.9375,35.6875,-50.3125,
24500,3.0625,33.375,-54.25,
24520,7.8125,28.5625,-54.4375,
24540,8.5,22.0625,-56.875,
24560,4.3125,15.4375,-59.5625,
24580,5,10.375,-61.8125,
24600,6.8125,6.75,-61.8125,
24620,16.25,-1.1875,-55.375,
24640,14.5625,-8.375,-53.6875,
24660,17.625,-13.0625,-52.4375,
24680,24.1875,-16.3125,-48.75,
24700,16.1875,-20.5,-44.375,
24720,15.125,-25.5,-44.5,
24740,26.25,-31.6875,-39.0625,
24760,36.75,-34.3125,-31.8125,
24780,32.0625,-38.9375,-27.375,
24800,29.75,-45.8125,-25.3125,
24820,33.4375,-50.5625,-22.125,
24840,33.75,-51.75,-17.875,
24860,36.8125,-50.3125,-11.3125,
24880,41.3125,-45.6875,-1.6875,
24900,37.875,-41.625,5.9375,
24920,33.9375,-40.375,12.6875,
24940,33.4375,-41.125,21.5625,
24960,33.5,-37.25,27.9375,
24980,32.0625,-32.5,35.125,
25000,32,-28.625,42.1875,
25020,30.375,-22.375,48.5,
25040,26.5,-18.5625,54.75,
25060,21.125,-16.1875,58.75,
25080,21.5625,-10.5625,62.6875,
25100,21.1875,-3.3125,66.1875,
25120,10.1875,-3.0625,68.3125,
25140,-12.375,-3.625,67.75,
25160,-24.875,-3.1875,67.3125,
25180,-26.375,-0.0625,66.1875,
25200,-26.8125,1.9375,62.8125,
25220,-30.25,6.4375,56.9375,
25240,-25.8125,9.625,49.875,
25260,-22.3125,15.9375,44.375,
25280,-20.4375,21.25,41.25,
25300,-17.875,26.4375,36.625,
25320,-21.5625,30.9375,30.875,
25340,-19.4375,35.8125,25.4375,
25360,-17.625,39,21.4375,
25380,-19.875,43.5625,16,
25400,-19.875,46.5,11.5625,
25420,-23.3125,49.8125,5,
25440,-24.5,52.125,-0.3125,
25460,-17.375,55,-3.75,
25480,-9.5625,56.5,-5.75,
25490,-12.6875,54.25,-11.0625,
25520,-21.125,53.5625,-18.8125,
25540,-16.0625,52.125,-22.6875,
25560,-12.75,48.625,-25.5,
25580,-9.8125,43.375,-29,
25600,-11.625,39.1875,-35,
25620,-10.75,35,-40.9375,
25640,-12.625,27.6875,-44.0625,
25650,-11.8125,24.125,-50.5,
25670,-8.6875,18.9375,-52.6875,
25690,-4.6875,16.375,-57.9375,
25710,-2.8125,12.25,-59.6875,
25730,-3.5,5.75,-61.875,
25750,1.6875,0.6875,-65.125,
25770,10,-3.5625,-66.0625,
25790,15.3125,-7.5,-67.625,
25810,24.875,-13.375,-63,
25830,30.75,-20.5625,-60.25,
25850,35.875,-27.3125,-57.875,
25870,36.625,-34.3125,-54.125,
25890,38.5625,-37.0625,-47.5625,
25910,38.25,-36.1875,-39.4375,
25930,39.625,-35.75,-31.9375,
25950,45.75,-36.0625,-21.375,
25970,47.75,-36.375,-12.5625,
25990,40.9375,-39.5625,-0.375,
26010,38.0625,-41.5,5.8125,
26030,28.4375,-39.1875,11.375,
26050,27.5,-40.3125,20.5,
26070,28.5625,-41.5625,29.75,
26090,29.25,-39.1875,35.9375,
26110,25.4375,-37.375,40.375,
26130,18.125,-34.75,45.3125,
26150,18,-34.3125,51.5625,
26170,12.3125,-33.75,55.75,
26190,11.9375,-31.3125,57.5625,
26210,11.5,-24.6875,61.8125,
26230,14.3125,-22.875,68.6875,
26250,1.875,-17.6875,67.5,
26270,-2.375,-11.9375,67.3125,
26290,5,-8.375,69.625,
26310,-0.875,0.25,67.25,
26330,-6.1875,3.75,63.125,
26350,-7.0625,6.4375,57.4375,
26370,-9.625,12.75,53.0625,
26390,-12.1875,18.3125,49.5625,
26410,-17.8125,25.125,44.0625,
26430,-22,29.3125,39.3125,
26450,-24.0625,35.5,34.25,
26470,-23.9375,40.9375,30.8125,
26490,-25.1875,44.5,27.5,
26510,-28.125,46.6875,20,
26530,-25.3125,49,13.1875,
26550,-19.0625,48.8125,6.9375,
26570,-19.4375,47.4375,0.5,
26590,-18.25,44.125,-5,
26610,-16.625,46.5,-11.25,
26630,-14.5625,47.6875,-13.5,
26650,-19.625,46.875,-18.4375,
26670,-14.9375,45.8125,-22.625,
26690,-13.6875,43.6875,-24.8125,
26710,-14.4375,41.75,-29.1875,
26730,-13.625,38.1875,-34.3125,
26750,-7.8125,31.4375,-39.3125,
26770,-1.125,28,-43.5,
26790,-5.25,23.5,-47.875,
26810,-5,17.75,-49.625,
26830,-2.5625,13.875,-52.6875,
26850,5.0625,8.25,-54.5625,
26870,13.5,5.6875,-56.75,
26890,11.25,-1.5,-55,
26910,6.9375,-7.375,-57,
26930,17.0625,-15.6875,-55.9375,
26950,24.3125,-14.1875,-56.375,
26970,35.1875,-19.75,-47.0625,
26990,31.0625,-26.125,-47.375,
27010,29.9375,-35.25,-44.625,
27030,29.4375,-38.9375,-40.8125,
27050,32.75,-40.1875,-31.5,
27070,40.125,-37,-21.75,
27090,36.75,-33.125,-14.9375,
27110,35.0625,-33.5,-8.3125,
27130,24.5625,-36.875,0.5,
27150,19.5625,-37.5,8,
27170,19.0625,-37.9375,17.6875,
27190,17.375,-34.0625,25.625,
27210,12.5625,-29,31.125,
27230,8,-26.4375,36.0625,
27250,5.625,-22.9375,38.625,
27270,6.5,-22.25,41.6875,
27290,8.4375,-18.9375,43.8125,
27310,8.6875,-16.0625,49.8125,
27330,8.125,-14.875,55.25,
27350,-0.9375,-13.4375,56.6875,
27370,-6.9375,-11.0625,58.25,
27390,-6.3125,-6.75,63.125,
27410,-9.8125,-1.875,66,
27430,-19.5,-1.4375,63.5625,
27450,-28.25,2.0625,59.0625,
27470,-22,5.875,56.9375,
27490,-19,8.0625,52.125,
27510,-22.6875,12.75,44.5625,
27530,-23.3125,17.375,38.1875,
27550,-22.75,18.5625,33.5,
27570,-22.4375,20.0625,29.5,
27590,-27.6875,23.3125,26.4375,
27610,-37.125,27.75,21.5625,
27630,-37.75,27.5625,17.4375,
27650,-37.0625,28.4375,13.4375,
27670,-39.5625,32.3125,6.125,
27690,-31.75,36,2.3125,
27710,-23.5,38.625,-1.5,
27730,-17.25,43.75,-6.875,
27750,-14,45.4375,-10.75,
27770,-8.0625,46.4375,-15,
27790,-7.8125,45.9375,-20.0625,
27810,-8.0625,44.4375,-25.125,
27830,-3.8125,43.25,-28.5,
27850,-0.125,43.8125,-32.5,
27870,3.9375,42.125,-34.625,
27890,1.875,36.8125,-37.9375,
27910,2.6875,35.125,-41.5625,
27930,5.75,33.875,-43.125,
27950,14.625,29.5625,-42,
27970,13.625,22.375,-43.9375,
27990,12.5625,15.9375,-45.8125,
28010,18.75,13.3125,-47.25,
28030,23.5625,6,-44.625,
28050,19.125,-4.1875,-47.5,
28070,15.8125,-14.375,-47.8125,
28090,15.3125,-16.875,-47,
28110,22.8125,-20.3125,-43,
28130,24.875,-26.5625,-42.4375,
28150,24.625,-31.4375,-40.9375,
28170,28.625,-37.125,-38.9375,
28190,31.25,-40.4375,-36,
28210,40.3125,-46.125,-30.9375,
28230,36.1875,-46.875,-30,
28250,39.625,-55.0625,-20.75,
28270,40.8125,-55.125,-9.3125,
28290,40.5,-53.625,-2.5625,
28310,37.875,-56.6875,4,
28330,30.8125,-55.125,11.3125,
28350,22.25,-52.5,20.875,
28370,21.5625,-49.4375,26.1875,
28390,19.375,-44.75,33.125,
28410,24.375,-42.75,38.9375,
28430,14.3125,-37.25,44.6875,
28450,5.6875,-38.125,49.3125,
28470,2.375,-35.4375,52.75,
28490,7.4375,-31.375,54.8125,
28510,8.9375,-25.625,57.375,
28530,1.8125,-23.125,59,
28550,-6.5,-15.375,55.6875,
28570,-3.6875,-11.4375,53.625,
28590,-0.5625,-5.75,50.9375,
28610,-11.125,4.5,49.1875,
28630,-9.25,10,45.375,
28650,-11.75,10.875,42.3125,
28670,-9.25,18.125,35.8125,
28690,-17.625,29.0625,32.375,
28710,-10.25,33.25,31.5,
28730,-25,38.1875,24.125,
28750,-31.5,37.875,17.375,
28770,-31.8125,43.0625,9.3125,
28790,-20.625,45.25,9,
28810,-24.0625,48.75,2.25,
28830,-25.6875,51.1875,-3.4375,
28850,-22,53.1875,-8.6875,
28870,-15.25,57.125,-13.375,
28890,-8.375,57.8125,-14.8125,
28910,-9.5,56.375,-18.75,
28930,-8.4375,63.375,-26.4375,
28950,-5.5625,59.9375,-26.8125,
28960,-4.8125,54.0625,-29.4375,
28980,-3.9375,51.3125,-35.375,
29000,0,44.9375,-40.9375,
29020,-3.375,37.5,-44.4375,
29040,-6.6875,32.5,-51.4375,
29060,1.5625,23.3125,-53.3125,
29080,1.375,14.9375,-58,
29100,-1.25,7.6875,-61.4375,
29120,6.875,2.75,-64.6875,
29140,15.75,-2.1875,-63,
29160,21,-10.5,-60,
29180,18.6875,-15.375,-58.375,
29200,24.125,-21.9375,-55,
29220,31.125,-25.4375,-49.8125,
29240,37.9375,-27.875,-43.3125,
29260,41.875,-31.4375,-32.4375,
29280,39.375,-32.3125,-26.25,
29300,39.75,-34,-18.1875,
29320,43.1875,-35.0625,-8.875,
29340,43.375,-34.125,0.375,
29360,30.8125,-36.375,8.75,
29380,21.3125,-41.375,15,
29400,18.4375,-40.6875,19.1875,
29420,21.25,-42.1875,24.8125,
29440,20.3125,-43,30.1875,
29460,17,-43.5625,35.0625,
29480,13.5,-41.125,41.1875,
29500,15.3125,-39.3125,45.75,
29520,16,-34.125,48.9375,
29540,18.25,-30.1875,54.3125,
29560,9.75,-23,58.125,
29580,5.75,-18.125,60.5625,
29600,5.3125,-13.0625,62.4375,
29620,6.9375,-9.8125,62.75,
29640,-2.9375,-4.75,61.4375,
29660,-12.4375,-0.4375,63.0625,
29680,-16.625,4.125,60.5625,
29700,-20.375,10.3125,55.9375,
29720,-22.5625,15.0625,51.8125,
29740,-22.75,20.8125,47,
29760,-25.9375,27.0625,39.625,
29780,-23.125,27.1875,35,
29800,-19.375,28.8125,28.625,
29820,-16.375,33.0625,24.8125,
29840,-19.375,36.25,19.625,
29860,-22.9375,38.625,12.3125,
29880,-19.125,43.25,7.25,
29900,-14.625,50,2.4375,
29920,-9.75,52.5,-0.3125,
29940,-15.1875,52.625,-10,
29960,-17.4375,50.3125,-16.1875,
29980,-10.625,50.875,-19.3125,
30000,-8.8125,51.5,-24.5625,
30020,-5.9375,51.75,-29.375,
30040,-0.0625,52.3125,-33.625,
30060,6.4375,53.3125,-38.125,
30080,8.4375,49.125,-38.875,
30100,9,47.25,-45.25,
30120,16.125,44.75,-47.1875,
30140,20,39.5,-47.875,
30160,11.25,33.625,-49.125,
30180,10.6875,27.1875,-53.5625,
30200,15.375,19.6875,-54.9375,
30220,22.9375,14.1875,-56.25,
30240,14.9375,5.25,-56.125,
30260,11.9375,-1.6875,-55.4375,
30280,16.8125,-10.875,-52.8125,
30300,21.125,-16,-51.5,
30320,27.8125,-23.25,-46.25,
30340,28.5,-27.875,-44.625,
30360,33.75,-33.125,-39.9375,
30380,35.5,-37,-36.5625,
30400,40.125,-41.3125,-32,
30420,43.375,-43.625,-24.625,
30440,42.0625,-43.6875,-16.25,
30460,37.875,-46.625,-8.5625,
30480,32.6875,-49.1875,-1.875,
30500,35.75,-50,5.5625,
30520,34.125,-47.9375,12.6875,
30540,28.75,-48.1875,18.0625,
30560,17.3125,-45.125,21.8125,
30580,15.8125,-46.375,27.25,
30600,16.1875,-43.0625,33,
30620,16.3125,-40.1875,39.625,
30640,12.375,-37.0625,45.625,
30660,3.25,-30.0625,49.875,
30680,-3.75,-26.9375,53.625,
30700,-4.9375,-25,57.75,
30720,-4.875,-21.625,60.5625,
30740,-7.5,-16.625,61.5625,
30760,-4.375,-10.4375,61.3125,
30780,-9.25,-0.125,59.9375,
30800,-5.625,2.5,60.3125,
30820,-11.0625,5.6875,57.4375,
30840,-11.875,9.8125,57.3125,
30860,-15.625,18.8125,55.75,
30880,-14.875,22.625,51.875,
30900,-18.3125,23.625,46.3125,
30910,-19.3125,26,42.6875,
30930,-17.25,34.375,36.6875,
30950,-15.5625,39.6875,30.5,
30970,-12.6875,40.375,26.375,
30990,-11.4375,43.9375,20.75,
31010,-16.1875,46.6875,15.8125,
31030,-16.4375,46.0625,8.5625,
31050,-15.125,46.1875,1.8125,
31070,-15.125,47.625,-3.8125,
31090,-13.6875,48.3125,-9.1875,
31110,-13.1875,48.4375,-16.3125,
31130,-16.5625,46.25,-21.6875,
31150,-17.625,42.3125,-26.8125,
31170,-18,41.75,-32.875,
31190,-8.875,42.4375,-37.4375,
31210,-2.875,39.875,-42.6875,
31230,-3.0625,35.625,-48,
31250,-3.5,31,-53.5625,
31270,6.375,30.375,-58.1875,
31290,17.6875,26.375,-57.625,
31310,18.5,22.125,-60.8125,
31330,17.4375,14.3125,-60.25,
31350,17.1875,5.0625,-59.875,
31370,18.625,-1.25,-60.0625,
31390,22.125,-4,-57.3125,
31410,24.875,-10.4375,-52.125,
31430,22.125,-18.125,-50.1875,
31450,21.0625,-25.875,-48.625,
31470,22.3125,-31.1875,-43.625,
31490,28.1875,-33.4375,-40,
31510,34.125,-36.0625,-32.625,
31530,33.875,-41.5625,-25.4375,
31550,30.125,-45.6875,-21.375,
31570,34.5625,-49.75,-15.1875,
31590,39,-49.5,-7.5,
31610,35.875,-47.375,-0.625,
31630,28,-45.4375,6.4375,
31650,25.9375,-44.75,13.5,
31670,28.0625,-42,19.9375,
31690,27.5625,-38.8125,26.8125,
31710,22.125,-33.4375,33.0625,
31730,16.3125,-30.5,39.1875,
31750,6.3125,-30.375,44,
31770,7.4375,-29.1875,48.25,
31790,8.4375,-24.5,52.5625,
31810,9.0625,-16.4375,54.8125,
31830,6.75,-8.5,58.0625,
31850,3.625,-6.1875,59.125,
31870,0.4375,-2,58.1875,
31890,-2.1875,5.75,59.5625,
31910,-4.375,10.625,59.5,
31930,-14.0625,13.875,57.9375,
31950,-21.1875,13.5625,55,
31970,-24,14.9375,51.875,
31990,-26,18.75,48.3125,
32010,-32.0625,22.625,42.5,
32030,-33.4375,20.4375,37.4375,
32050,-39.5625,23.125,31.5625,
32070,-34.5,30.4375,29.1875,
32090,-29.9375,37.8125,24,
32110,-27.3125,40.4375,14.625,
32130,-27.9375,38.6875,7.375,
32150,-22.9375,38.625,1.1875,
32170,-17.1875,45.4375,-5.8125,
32190,-13.4375,46.8125,-10.875,
32210,-12.5625,45.9375,-17.4375,
32230,-12.25,46.125,-22.25,
32250,-10.0625,48.5,-26,
32270,-2,50.0625,-28.625,
32290,-3.375,49.5,-32.4375,
32310,-0.375,50.5625,-37.3125,
32330,9.3125,50.0625,-40.25,
32350,19.5,45.875,-40.75,
32370,9.75,39.4375,-44.5,
32390,10.75,31.625,-48.875,
32410,13.8125,25.375,-49.4375,
32430,18,16.8125,-50.0625,
32450,9.9375,6.75,-49.4375,
32470,12.9375,-0.5625,-48.9375,
32490,15.6875,-6.1875,-46.75,
32510,21.6875,-12.5,-43.75,
32530,22.1875,-20.3125,-39.125,
32550,29.125,-24.5625,-37.0625,
32570,33.4375,-31.4375,-34.375,
32590,35.875,-39.5,-29.625,
32610,26.6875,-42.75,-25.625,
32630,29.4375,-47.3125,-20.875,
32650,34.5,-50.0625,-12.4375,
32670,35.375,-50.9375,-6.8125,
32690,31.6875,-49.5625,-1.625,
32710,37.875,-47.0625,4.8125,
32730,40.625,-43.25,11.5625,
32750,37.5,-42,17.625,
32770,36.0625,-37.875,24.1875,
32790,31.875,-37.5625,30.9375,
32810,26.75,-38.375,35.8125,
32830,20.5625,-35.375,37.625,
32850,21.5,-32.625,44.1875,
32870,13.8125,-27.1875,49.1875,
32890,9.375,-24.5,53.875,
32910,5.625,-18.6875,56.9375,
32930,7.9375,-9.25,61.8125,
32950,2,-0.4375,66.9375,
32970,-7.875,4.8125,64.875,
32990,-6.8125,10.75,63.4375,
33010,2.8125,14.5625,66.25,
33030,0.0625,22.4375,65.5625,
33050,-7.1875,19.5,62.75,
33070,-12.875,17.25,57.5,
33090,-16.1875,18.8125,54.3125,
33110,-17.0625,22.375,52.375,
33130,-18.8125,29.3125,42.75,
33150,-29,27.5,37.0625,
33170,-39.125,27.8125,28.625,
33190,-33.5625,30.6875,21.3125,
33210,-29,33.75,11,
33230,-34.8125,32.5,2.3125,
33250,-36.125,35.5625,-4.75,
33270,-25.625,39,-11.3125,
33290,-17.875,41.0625,-17,
33310,-19.1875,47.5,-23.125,
33330,-17.5625,48.875,-25.625,
33350,-13.625,52,-27.5,
33370,-4.4375,53.3125,-31.25,
33390,-1.25,51.8125,-34.5,
33410,-3.6875,47,-37,
33430,-8,44.125,-39.5625,
33450,-5.375,45.125,-41.4375,
33470,4.25,38.75,-42.25,
33490,1.6875,30.75,-46.125,
33510,-6.5625,25.1875,-47.875,
33530,-8.8125,20.3125,-48.75,
33550,-1.8125,13.8125,-49.6875,
33570,4.0625,9.75,-53.8125,
33590,8.4375,3.6875,-55.8125,
33610,15.0625,-1.3125,-56.5625,
33630,16.9375,-6.75,-52.625,
33650,22.0625,-12.25,-49.3125,
33670,19.1875,-15.875,-47.4375,
33690,20.8125,-21.75,-44.75,
33710,21.875,-27.3125,-39.0625,
33730,19.125,-34.25,-36.6875,
33750,21.125,-38.4375,-32.1875,
33770,29.1875,-40.1875,-26.1875,
33790,30.9375,-42.875,-20.75,
33810,27.1875,-45.375,-16.5625,
33830,28.25,-49.3125,-11.8125,
33850,32.4375,-48.5,-5.375,
33870,39.3125,-46.9375,3.875,
33890,42.1875,-43.625,13.4375,
33910,43.25,-40.5625,22.9375,
33930,40.25,-41.25,31.1875,
33950,33.875,-38.5,41.5625,
33970,32.125,-33,46.75,
33990,25.125,-29.8125,53.3125,
34010,14.4375,-28.25,60.375,
34030,6.9375,-21.9375,64.875,
34050,4.375,-17,68.9375,
34070,-0.875,-10,74.5,
34090,-3.875,-3.125,77.9375,
34110,-12.8125,1.0625,75.25,
34130,-20.3125,6.625,71.25,
34150,-20.0625,12.625,65.75,
34170,-19.625,15.625,58.3125,
34190,-26.0625,16.6875,48.875,
34210,-25.1875,18.1875,38.75,
34220,-17.6875,20.8125,28.3125,
34240,-14.8125,27.8125,18.6875,
34260,-14.9375,29.625,13.0625,
34280,-14.25,31,7.375,
34300,-10.5,34.8125,1.1875,
34320,-11.9375,40.125,-4.875,
34340,-14.6875,43,-9.125,
34360,-15.3125,46.125,-11.875,
34380,-10.625,49.9375,-14.3125,
34400,-9.875,53.1875,-17.875,
34420,-7.375,51,-19.9375,
34440,-8.6875,50.0625,-25.3125,
34460,-7.875,48,-26.25,
34480,-4.8125,48.25,-30.0625,
34500,3.9375,42.125,-32.1875,
34520,1.8125,35.0625,-37.25,
34540,-3.25,31.0625,-43.625,
34560,-1.9375,25,-45.875,
34580,4.0625,16.25,-48,
34600,3.9375,8.5,-52.0625,
34620,2.1875,0.375,-55.875,
34640,4.1875,-6.1875,-57,
34660,8.5,-11.75,-58.1875,
34680,12.0625,-18.8125,-57.3125,
34700,19.125,-22.75,-55.1875,
34720,24.375,-24.9375,-52.25,
34740,29.625,-28.0625,-47.1875,
34760,34.4375,-31.875,-40.25,
34780,33.0625,-34.75,-37.25,
34800,40.0625,-39,-30.5625,
34820,47.25,-41,-22.4375,
34840,48.8125,-44.625,-14.125,
34860,41.75,-45.5,-8.25,
34880,37.3125,-47.6875,-0.375,
34900,35.1875,-49.1875,7.4375,
34920,32,-48.75,17.875,
34940,26.125,-44.3125,26.875,
34960,17.5625,-40.875,34.125,
34980,7,-38.4375,40.4375,
35000,-0.1875,-36,48.0625,
35020,2,-33.25,53.375,
35040,2.4375,-28.375,56.3125,
35060,-4.625,-23,60.8125,
35080,1.75,-19.0625,62.75,
35100,-1.6875,-15.875,65.875,
35120,-1.75,-10.75,67.8125,
35140,-0.625,-2.0625,67,
35160,5,3.625,67.5625,
35180,6.4375,9.4375,66.4375,
35200,-1.8125,16.1875,63.0625,
35220,-5.625,22.125,60.5,
35240,-6.5625,28.25,56.9375,
35260,-11.5,29.4375,50.25,
35280,-21.125,27.75,42.3125,
35300,-27.375,25.625,34.6875,
35320,-32.5625,22.875,26.625,
35340,-30.0625,22.25,17.3125,
35360,-29.6875,25.875,8.125,
35380,-31.125,27.6875,0.1875,
35400,-31.5625,28.1875,-6.3125,
35420,-29.6875,30.8125,-12.75,
35440,-26.0625,36.4375,-19.875,
35460,-23.625,38.625,-24.0625,
35480,-31.875,40.75,-29.0625,
35500,-29.75,39.75,-31.75,
35520,-21.4375,47.125,-38.5,
35540,-6.0625,52.875,-37,
35560,-3.6875,53.9375,-37.0625,
35580,-9.6875,55.0625,-41.875,
35600,-6.25,53.4375,-43.8125,
35620,5.9375,54.3125,-44.1875,
35640,4.0625,50.75,-42.5,
35660,-1.3125,44.75,-44.8125,
35680,4.8125,40.25,-45.3125,
35700,13.125,37.75,-47.625,
35720,12.9375,29.3125,-45.375,
35740,3.875,20.5,-46.125,
35760,-0.0625,14.3125,-48.5625,
35780,10.625,7.375,-47.0625,
35800,17.375,2.625,-43.1875,
35820,17.5,-7.375,-39.5625,
35840,12.5,-13.75,-42.4375,
35860,18.375,-19.4375,-40.625,
35880,24.5625,-24.125,-34.875,
35900,30.9375,-28.5,-30.375,
35920,26.8125,-30.3125,-27.5,
35940,31.25,-36.6875,-26.875,
35960,36.75,-42.375,-24.8125,
35980,38.3125,-45.25,-20.875,
36000,36.5,-49,-16.1875,
36020,28.6875,-53.9375,-12,
36040,29.1875,-58.5625,-11.25,
36060,30.875,-58.8125,-6.6875,
36080,32.6875,-59.9375,-0.375,
36100,27.5625,-58.3125,3.0625,
36120,26.6875,-57.5,7.125,
36130,29.375,-54.125,12.8125,
36150,28.5,-51.625,20.0625,
36170,23.375,-50.6875,26.375,
36190,22.0625,-47.4375,31.625,
36210,21.0625,-41.1875,37,
36230,19.0625,-39.9375,43.25,
36250,16.1875,-35.8125,46.6875,
36270,16.9375,-27.1875,50.625,
36290,18.875,-20.5,52.75,
36310,14.25,-17,54.875,
36330,5.0625,-13.0625,56.1875,
36350,5.0625,-8.5,56.625,
36370,4.875,-3.0625,57.4375,
36390,3.125,4.5625,57.0625,
36410,-2.75,12.5625,56.125,
36430,-7.375,18.8125,51.3125,
36450,-8,19.125,47.3125,
36470,-10.75,22.9375,43.1875,
36490,-14.375,28.375,39.6875,
36510,-15.8125,32.1875,35.875,
36530,-17.0625,35.3125,29.875,
36550,-17.4375,36.3125,24.4375,
36570,-20.625,40.5,18.625,
36590,-22.8125,44.25,13.875,
36610,-19.0625,45.75,7.875,
36630,-22.875,45.9375,1.8125,
36650,-26.25,45.8125,-3.875,
36670,-23.375,45.4375,-7.5,
36690,-19.375,45.5,-12.6875,
36710,-20.125,44.25,-17.4375,
36730,-17.1875,42.25,-20.5,
36750,-15.0625,41.6875,-23.8125,
36770,-15.9375,42.25,-27.3125,
36790,-10.1875,42.875,-31.0625,
36810,-5.4375,43.3125,-30.875,
36830,-0.3125,42,-30.3125,
36850,-1,41.75,-31.3125,
36870,-1.0625,38.8125,-32.4375,
36890,1.9375,36.0625,-31.3125,
36910,9.4375,33.25,-31.1875,
36930,6.25,28.0625,-28.375,
36950,7.8125,26.625,-27.5,
36970,10.625,24.125,-25.5,
36990,15.3125,22.125,-23.9375,
37010,16.9375,19.4375,-19.9375,
37030,12.9375,18.6875,-18.8125,
37050,16.9375,15.125,-12.9375,
37070,23.125,13.8125,-13,
37090,13.875,11,-9.625,
37110,8.25,9.5,-11,
37130,6.625,4.3125,-9.375,
37150,9.5625,1.125,-9.25,
37170,4.8125,-3.6875,-9.625,
37190,-2.1875,-5.8125,-9.875,
37210,-2.1875,-8.25,-9.9375,
37230,1.3125,-8.0625,-7.4375,
37250,6.8125,-4,-7.25,
37270,4.4375,-1.5,-3.125,
37290,5.625,0.5,-2.375,
37310,1.125,-2.5,-1.375,
37330,6.0625,-4.0625,-1.8125,
37350,3.375,-2.25,-1.4375,
37370,-0.4375,-0.75,-0.3125,
37390,-1.5,-0.75,-0.375,
37410,-2,-2.3125,-0.8125,
37430,-1.25,-2.625,-0.9375,
37450,3.1875,0.0625,-1.6875,
37470,3.625,0.25,-0.6875,
37490,3.0625,0.0625,-2.4375,
37510,1.8125,1.1875,-0.8125,
37530,2.8125,0.5625,-1.1875,
37550,2.0625,-1.125,-1.6875,
37570,10,2.625,-8.1875,
37590,15.0625,2.875,-7.0625,
37610,23.875,4.3125,-10.75,
37630,22.875,2.625,-11.6875,
37650,24.1875,4.25,-12.4375,
37670,31.3125,6.0625,-10.1875,
37690,32.1875,8.375,-8.1875,
37710,26.25,10,-7.6875,
37730,30.8125,7.1875,-2.5,
37750,221.688,16.5625,55.3125,
37770,396,-42.125,-7.4375,
37790,69.25,25.375,-11.3125,
37810,-348.5,37.5,-50.125,
37830,-320.688,27.25,-27.625,
37850,-8.9375,9.8125,-0.0625,
37870,148.625,-5.4375,8.1875,
37890,66.5625,0.4375,-1.875,
37910,182.125,-13.5,59.8125,
37930,181.125,-15.6875,-27.5625,
37950,-137.438,18.4375,-43.625,
37970,-277.625,23.1875,-33.6875,
37990,-126,11.125,-9.75,
38010,62.9375,0,4.6875,
38030,66.5625,1.5625,8.5625,
38050,-14.5,7.25,-2.9375,
38070,-31.25,6.3125,-3.3125,
38090,15.6875,2.1875,1.0625,
38110,28.0625,2.6875,4.875,
38130,2,6.0625,3.875,
38150,-22,7.25,2.3125,
38170,-21.8125,7.25,3.8125,
38190,-4.6875,5.9375,7.4375,
38210,1.4375,4.9375,6.6875,
38230,-5.375,5.625,4.3125,
38250,5.25,3.8125,5.5,
38270,19.25,4.8125,4.875,
38290,17,5.875,4,
38310,8.125,5.25,1.0625,
38330,0.9375,0.9375,1.0625,
38350,1.5625,-0.375,-0.375,
38370,4.375,0.4375,0.375,
38390,1.875,0.3125,2.8125,
38410,-7.5625,-1.0625,1.9375,
38430,-8.4375,-2.75,1.875,
38450,-2,0,1.125,
38470,-1.375,4.125,3.375,
38490,-3.75,4.1875,3.5,
38510,-4.375,0.3125,3.25,
38530,-0.9375,-0.375,2.75,
38550,3,0.625,1.125,
38570,3.875,0.6875,1.5625,
38590,2.25,-0.125,1.75,
38610,0.6875,-1.4375,2.125,
38630,2.5625,0.9375,1.875,
