Timestamp, Angle x, Angle y, Angle z
40,-1.22316,0.120227,1.47286,
60,-1.2209,0.122925,1.47493,
80,-1.21853,0.125634,1.47677,
100,-1.21721,0.129137,1.47848,
110,-1.21724,0.132573,1.47954,
110,-1.2166,0.136277,1.48092,
150,-1.2154,0.139923,1.48228,
170,-1.2137,0.143285,1.48349,
190,-1.21173,0.14613,1.48489,
210,-1.21005,0.14891,1.48565,
230,-1.20831,0.151433,1.4862,
250,-1.20608,0.154492,1.48715,
270,-1.20436,0.157168,1.48802,
290,-1.20385,0.158872,1.48833,
310,-1.20235,0.160552,1.48914,
330,-1.2013,0.16166,1.49016,
350,-1.20005,0.162376,1.49173,
370,-1.19857,0.162157,1.49358,
390,-1.197,0.161965,1.49534,
410,-1.19585,0.162547,1.49686,
430,-1.19566,0.163167,1.49826,
450,-1.19656,0.164029,1.49932,
470,-1.19754,0.165325,1.50012,
490,-1.19921,0.166791,1.50057,
510,-1.20152,0.167983,1.50052,
530,-1.20269,0.168264,1.50079,
550,-1.2033,0.167823,1.50107,
570,-1.20354,0.166983,1.50129,
590,-1.20302,0.166375,1.50161,
610,-1.20323,0.165675,1.50197,
630,-1.20386,0.165106,1.50249,
650,-1.20399,0.164689,1.50321,
670,-1.20329,0.164618,1.50372,
690,-1.2028,0.16469,1.50446,
710,-1.20223,0.164692,1.50497,
730,-1.20223,0.164692,1.50497,
750,-1.20095,0.165026,1.5055,
770,-1.20084,0.165096,1.50541,
790,-1.20082,0.165138,1.50541,
810,-1.19977,0.165125,1.50544,
830,-1.19876,0.165441,1.50529,
850,-1.19889,0.165515,1.5053,
870,-1.19816,0.165858,1.5057,
890,-1.19788,0.166368,1.50566,
910,-1.19715,0.166612,1.50592,
930,-1.19589,0.166935,1.50607,
950,-1.19473,0.166905,1.50626,
970,-1.19346,0.167042,1.5065,
990,-1.19268,0.167183,1.50684,
1010,-1.19184,0.167409,1.50725,
1030,-1.19129,0.167496,1.50753,
1050,-1.19056,0.16774,1.5078,
1070,-1.19,0.167642,1.50816,
1090,-1.18909,0.167521,1.50859,
1110,-1.18911,0.16748,1.5086,
1130,-1.18911,0.16748,1.5086,
1150,-1.18864,0.167255,1.5089,
1170,-1.18863,0.167199,1.50874,
1190,-1.18864,0.167255,1.5089,
1210,-1.18863,0.167199,1.50874,
1230,-1.18863,0.167199,1.50874,
1250,-1.18917,0.167209,1.50861,
1270,-1.18981,0.16719,1.50856,
1290,-1.18981,0.16719,1.50856,
1310,-1.19042,0.166831,1.5083,
1330,-1.1904,0.166872,1.5083,
1350,-1.19053,0.166761,1.50839,
1370,-1.19053,0.166761,1.50839,
1390,-1.19114,0.166499,1.50827,
1410,-1.19114,0.166499,1.50827,
1430,-1.19112,0.166541,1.50827,
1450,-1.19125,0.166615,1.50827,
1470,-1.19135,0.166544,1.50836,
1490,-1.19135,0.166544,1.50836,
1510,-1.19133,0.166488,1.5082,
1530,-1.19135,0.166544,1.50836,
1550,-1.19133,0.166488,1.5082,
1570,-1.19147,0.166562,1.50821,
1590,-1.19147,0.166562,1.50821,
1610,-1.19147,0.166562,1.50821,
1630,-1.19133,0.166488,1.5082,
1650,-1.19133,0.166488,1.5082,
1670,-1.19147,0.166562,1.50821,
1690,-1.19157,0.166492,1.50829,
1710,-1.19155,0.166435,1.50814,
1730,-1.19157,0.166492,1.50829,
1750,-1.19155,0.166435,1.50814,
1770,-1.19157,0.166492,1.50829,
1790,-1.19135,0.166544,1.50836,
1810,-1.19092,0.166552,1.50834,
1830,-1.19092,0.166552,1.50834,
1850,-1.19092,0.166552,1.50834,
1870,-1.1905,0.166519,1.50832,
1890,-1.18943,0.166643,1.5085,
1910,-1.18913,0.166725,1.50848,
1930,-1.18846,0.166511,1.50885,
1950,-1.188,0.166091,1.50885,
1970,-1.18811,0.166206,1.50885,
1990,-1.18787,0.167046,1.50864,
2010,-1.18699,0.167437,1.50851,
2030,-1.18691,0.168214,1.50816,
2050,-1.19127,0.172251,1.50108,
2070,-1.1982,0.177136,1.49192,
2090,-1.20473,0.181584,1.47635,
2110,-1.21516,0.184857,1.45775,
2130,-1.22619,0.188076,1.44147,
2150,-1.23447,0.188534,1.42775,
2170,-1.238,0.185812,1.41697,
2190,-1.23004,0.183963,1.4103,
2210,-1.22109,0.182819,1.4038,
2230,-1.22022,0.185436,1.39955,
2250,-1.22053,0.188434,1.39693,
2270,-1.22046,0.187733,1.39611,
2290,-1.22506,0.183146,1.39615,
2310,-1.23294,0.173664,1.39404,
2330,-1.23304,0.167139,1.39232,
2350,-1.22905,0.154371,1.39339,
2370,-1.22564,0.138136,1.3949,
2390,-1.22261,0.12023,1.39497,
2410,-1.21233,0.101672,1.39701,
2430,-1.19762,0.0815094,1.40061,
2450,-1.1811,0.0602676,1.40558,
2470,-1.166,0.0390245,1.41256,
2490,-1.15133,0.0166861,1.41914,
2510,-1.1362,-0.0035779,1.42477,
2530,-1.12289,-0.0210646,1.4312,
2550,-1.10883,-0.0365106,1.43789,
2570,-1.09416,-0.0487112,1.44474,
2590,-1.08069,-0.0579382,1.45241,
2610,-1.07162,-0.0645339,1.46158,
2630,-1.06375,-0.0703646,1.47273,
2650,-1.05819,-0.0757719,1.48478,
2670,-1.05554,-0.0800723,1.49774,
2690,-1.0536,-0.0831545,1.51177,
2700,-1.05359,-0.0857945,1.52613,
2720,-1.05218,-0.088132,1.5401,
2740,-1.05018,-0.0888973,1.55386,
2760,-1.04834,-0.0881492,1.56719,
2780,-1.04779,-0.0871079,1.58048,
2800,-1.04667,-0.0855766,1.59336,
2820,-1.04357,-0.0835382,1.60639,
2840,-1.04126,-0.0796885,1.61895,
2860,-1.04137,-0.0747605,1.63086,
2880,-1.04126,-0.0698401,1.64276,
2900,-1.04019,-0.0648241,1.65369,
2920,-1.03948,-0.0580765,1.66433,
2940,-1.04137,-0.050058,1.67382,
2960,-1.04506,-0.0420005,1.68205,
2980,-1.04856,-0.0333336,1.6897,
3000,-1.05131,-0.0238506,1.69629,
3020,-1.05478,-0.0135804,1.70211,
3040,-1.05841,-0.00386793,1.70653,
3060,-1.06293,0.00542953,1.70991,
3080,-1.06659,0.0146066,1.71204,
3100,-1.07051,0.02304,1.71323,
3120,-1.07537,0.0303185,1.71248,
3140,-1.07947,0.0368131,1.71082,
3160,-1.08338,0.0430044,1.70793,
3180,-1.08757,0.0484361,1.70383,
3200,-1.09195,0.0525462,1.69841,
3220,-1.09718,0.0564818,1.69191,
3240,-1.10219,0.0598523,1.68445,
3260,-1.10828,0.0621846,1.67551,
3280,-1.11454,0.0638574,1.66537,
3300,-1.11937,0.0645814,1.65482,
3320,-1.12498,0.0628892,1.6431,
3340,-1.13243,0.060647,1.63116,
3360,-1.13967,0.0575154,1.61813,
3380,-1.14718,0.0528706,1.60459,
3400,-1.15314,0.0478546,1.59047,
3420,-1.15863,0.0428784,1.57654,
3440,-1.16476,0.038547,1.56214,
3460,-1.17149,0.0330675,1.548,
3480,-1.17725,0.0261006,1.53478,
3500,-1.18159,0.0181601,1.52252,
3520,-1.18452,0.00889236,1.5104,
3540,-1.18465,-0.00122288,1.49874,
3560,-1.18356,-0.0121254,1.4882,
3580,-1.18218,-0.0254725,1.47934,
3600,-1.17687,-0.0398845,1.47207,
3620,-1.171,-0.0552672,1.46618,
3640,-1.16407,-0.0715347,1.46247,
3660,-1.15427,-0.0877998,1.46191,
3680,-1.1413,-0.104879,1.46277,
3700,-1.12672,-0.121728,1.46341,
3720,-1.11202,-0.136719,1.4646,
3740,-1.09582,-0.150238,1.46797,
3760,-1.07978,-0.163321,1.47313,
3780,-1.06343,-0.17611,1.48004,
3800,-1.04811,-0.18774,1.48835,
3820,-1.03461,-0.197866,1.49773,
3840,-1.02151,-0.206578,1.50835,
3860,-1.00709,-0.214075,1.52011,
3880,-0.993333,-0.220717,1.53301,
3900,-0.980766,-0.226373,1.5466,
3920,-0.97014,-0.231307,1.56102,
3940,-0.960895,-0.235063,1.57655,
3960,-0.956716,-0.237475,1.59312,
3980,-0.952168,-0.238461,1.61056,
4000,-0.945367,-0.238329,1.62716,
4020,-0.939128,-0.236605,1.64476,
4040,-0.937782,-0.233413,1.66267,
4060,-0.937538,-0.228413,1.68,
4080,-0.938184,-0.22241,1.69687,
4100,-0.941877,-0.214121,1.71482,
4120,-0.945858,-0.204079,1.732,
4140,-0.952535,-0.192464,1.74748,
4160,-0.960507,-0.179397,1.76159,
4180,-0.972285,-0.163864,1.77598,
4200,-0.984609,-0.146614,1.78939,
4220,-0.999059,-0.128252,1.79956,
4240,-1.01236,-0.109063,1.8088,
4260,-1.02384,-0.0896043,1.81604,
4280,-1.03484,-0.0690148,1.82094,
4300,-1.04512,-0.0488805,1.82339,
4320,-1.05491,-0.0291928,1.82409,
4340,-1.06328,-0.00962412,1.82272,
4360,-1.07075,0.00977287,1.81884,
4380,-1.07625,0.0287196,1.81281,
4400,-1.08023,0.0462501,1.80538,
4420,-1.08508,0.0633726,1.7962,
4440,-1.09138,0.0790757,1.78576,
4460,-1.09839,0.0917038,1.77328,
4480,-1.1051,0.101689,1.75878,
4500,-1.11115,0.109445,1.74418,
4520,-1.11682,0.114245,1.72845,
4540,-1.12599,0.115236,1.71257,
4560,-1.13532,0.113263,1.69665,
4580,-1.1418,0.109394,1.68063,
4600,-1.1481,0.104515,1.66446,
4620,-1.15556,0.0970288,1.64761,
4630,-1.16133,0.0896587,1.62869,
4650,-1.16483,0.0825834,1.60968,
4670,-1.16654,0.0742134,1.59026,
4690,-1.16742,0.0655833,1.57058,
4710,-1.1663,0.0561253,1.55113,
4730,-1.16391,0.0451061,1.53213,
4750,-1.1583,0.032594,1.5139,
4770,-1.15288,0.0195105,1.4973,
4790,-1.14767,0.00632189,1.48145,
4810,-1.14157,-0.00762065,1.46746,
4830,-1.13409,-0.0224975,1.45526,
4850,-1.12646,-0.0378252,1.44523,
4870,-1.11771,-0.0544628,1.43742,
4890,-1.10783,-0.0718111,1.4315,
4910,-1.09747,-0.0889607,1.42675,
4930,-1.08624,-0.106439,1.42454,
4950,-1.07412,-0.123363,1.42424,
4970,-1.06167,-0.139773,1.42482,
4990,-1.04836,-0.154805,1.42683,
5010,-1.03221,-0.168166,1.432,
5030,-1.01467,-0.181278,1.4368,
5050,-0.998095,-0.193598,1.44345,
5070,-0.982727,-0.205138,1.45222,
5090,-0.96913,-0.214767,1.46324,
5110,-0.956894,-0.223094,1.4759,
5130,-0.945886,-0.230444,1.48959,
5150,-0.936967,-0.23682,1.50475,
5170,-0.929357,-0.241589,1.52167,
5190,-0.924715,-0.245606,1.5405,
5210,-0.92603,-0.24935,1.56123,
5230,-0.9307,-0.252719,1.58265,
5250,-0.935178,-0.25486,1.60548,
5270,-0.938715,-0.255662,1.62893,
5290,-0.944418,-0.254318,1.65289,
5310,-0.952765,-0.250834,1.67589,
5330,-0.959312,-0.244864,1.69767,
5350,-0.962149,-0.236091,1.71758,
5370,-0.96598,-0.224213,1.73707,
5390,-0.972478,-0.209856,1.75585,
5410,-0.981432,-0.193379,1.77412,
5430,-0.990429,-0.177146,1.79001,
5450,-0.998967,-0.159264,1.80507,
5470,-1.00642,-0.140892,1.81868,
5490,-1.01827,-0.121776,1.82873,
5510,-1.02705,-0.1024,1.83698,
5530,-1.03716,-0.0832459,1.84274,
5550,-1.0489,-0.0649855,1.84618,
5570,-1.06046,-0.0464386,1.84744,
5590,-1.07134,-0.0280985,1.84628,
5610,-1.08246,-0.0107492,1.84314,
5630,-1.09353,0.0055716,1.83784,
5650,-1.10297,0.0209392,1.83092,
5670,-1.11247,0.0356755,1.82281,
5690,-1.12184,0.0474098,1.81197,
5710,-1.13098,0.056864,1.79909,
5730,-1.13788,0.0653483,1.78485,
5750,-1.1437,0.0716505,1.76986,
5770,-1.15204,0.0739582,1.75438,
5790,-1.15617,0.0742258,1.73816,
5810,-1.15813,0.0717048,1.7208,
5830,-1.16084,0.0664351,1.70195,
5850,-1.16347,0.0620568,1.6829,
5870,-1.16574,0.0558515,1.66358,
5890,-1.1683,0.047703,1.64527,
5910,-1.17014,0.0377988,1.62644,
5930,-1.16968,0.0266772,1.60784,
5950,-1.16893,0.0143683,1.5901,
5970,-1.16919,0.000160933,1.57272,
5990,-1.16852,-0.0136127,1.55529,
6010,-1.16523,-0.0272218,1.53921,
6030,-1.15916,-0.0415372,1.52359,
6050,-1.15342,-0.0557477,1.50946,
6070,-1.14633,-0.0682667,1.49774,
6090,-1.13852,-0.080586,1.48731,
6110,-1.12779,-0.0942319,1.47865,
6130,-1.11718,-0.107857,1.47093,
6150,-1.10603,-0.12007,1.46545,
6170,-1.09628,-0.132455,1.46189,
6190,-1.08606,-0.14472,1.45933,
6210,-1.07514,-0.156127,1.45801,
6230,-1.06356,-0.167054,1.45916,
6250,-1.05273,-0.177924,1.46281,
6270,-1.04072,-0.188984,1.46675,
6290,-1.02747,-0.199394,1.47152,
6310,-1.01608,-0.20888,1.47799,
6330,-1.00847,-0.217172,1.48703,
6350,-0.999686,-0.224879,1.49802,
6370,-0.989431,-0.231796,1.50979,
6390,-0.978333,-0.238151,1.52342,
6410,-0.970088,-0.243191,1.53778,
6430,-0.963642,-0.247691,1.55382,
6450,-0.959434,-0.251915,1.57091,
6470,-0.957365,-0.255048,1.5887,
6490,-0.957649,-0.256447,1.60748,
6510,-0.959279,-0.256751,1.6278,
6530,-0.961844,-0.256042,1.6472,
6550,-0.963906,-0.253502,1.66668,
6570,-0.969343,-0.249388,1.68611,
6590,-0.976224,-0.243448,1.70494,
6610,-0.982035,-0.236182,1.72175,
6630,-0.987614,-0.225887,1.73761,
6650,-0.993489,-0.214208,1.75326,
6670,-1.00066,-0.200509,1.76765,
6690,-1.00724,-0.18583,1.7796,
6710,-1.01415,-0.169986,1.79009,
6730,-1.02282,-0.152189,1.79944,
6750,-1.03149,-0.132981,1.8069,
6770,-1.03982,-0.113916,1.81227,
6790,-1.04698,-0.0945953,1.81547,
6810,-1.0565,-0.0746633,1.8173,
6830,-1.06455,-0.0552654,1.81592,
6850,-1.07204,-0.0365016,1.8131,
6870,-1.07926,-0.0182285,1.80909,
6890,-1.08747,-0.00118592,1.80305,
6910,-1.09501,0.0138063,1.79515,
6930,-1.10071,0.0274368,1.78593,
6950,-1.10602,0.0401962,1.77509,
6970,-1.11239,0.0510758,1.7629,
6990,-1.11903,0.0606702,1.74962,
7010,-1.12362,0.0675162,1.73546,
7030,-1.12829,0.0715466,1.71974,
7050,-1.13223,0.0741003,1.70334,
7070,-1.1346,0.0759073,1.68659,
7090,-1.13632,0.0759679,1.66986,
7110,-1.13897,0.0732655,1.65282,
7130,-1.14108,0.0696923,1.63589,
7150,-1.14272,0.0648033,1.61942,
7170,-1.14342,0.0581254,1.60328,
7190,-1.14308,0.0503847,1.58676,
7210,-1.14084,0.0412655,1.57038,
7230,-1.13904,0.030707,1.55466,
7250,-1.13871,0.0193459,1.54017,
7270,-1.13549,0.00705779,1.52607,
7290,-1.13088,-0.00587374,1.51369,
7310,-1.12538,-0.0188849,1.50189,
7330,-1.1205,-0.031742,1.49158,
7350,-1.11518,-0.0451666,1.48322,
7370,-1.10848,-0.0585477,1.47574,
7390,-1.10277,-0.0719602,1.46879,
7410,-1.09641,-0.0839656,1.46384,
7430,-1.08898,-0.0950987,1.46116,
7450,-1.08281,-0.106505,1.46014,
7470,-1.07637,-0.118414,1.46026,
7490,-1.06915,-0.130855,1.46167,
7510,-1.06131,-0.142617,1.46438,
7530,-1.05396,-0.153631,1.46868,
7550,-1.04731,-0.164473,1.47491,
7570,-1.04023,-0.176587,1.48163,
7590,-1.03154,-0.188105,1.48942,
7610,-1.02238,-0.199336,1.49794,
7630,-1.0166,-0.210348,1.50795,
7650,-1.01058,-0.220888,1.51874,
7670,-1.00606,-0.23125,1.53086,
7690,-1.003,-0.241235,1.5448,
7710,-1.00234,-0.250828,1.56034,
7730,-1.00248,-0.259496,1.57706,
7750,-1.00424,-0.266678,1.59577,
7770,-1.00725,-0.271186,1.61591,
7790,-1.00941,-0.273739,1.63678,
7810,-1.01168,-0.273974,1.65724,
7830,-1.01518,-0.271014,1.67729,
7850,-1.01827,-0.264465,1.69625,
7870,-1.02192,-0.255434,1.71313,
7890,-1.0246,-0.244092,1.72948,
7910,-1.02878,-0.23005,1.74338,
7930,-1.03305,-0.213651,1.75813,
7950,-1.03888,-0.196392,1.77157,
7960,-1.04491,-0.178358,1.78386,
7980,-1.05211,-0.15941,1.7952,
8000,-1.05988,-0.138807,1.8044,
8020,-1.06769,-0.118661,1.81022,
8040,-1.0754,-0.0975122,1.81386,
8060,-1.08006,-0.0755996,1.81661,
8080,-1.08587,-0.0533121,1.81741,
8100,-1.0904,-0.0325834,1.81582,
8120,-1.09412,-0.0134256,1.81187,
8140,-1.09928,0.00431175,1.80619,
8160,-1.10467,0.0198141,1.79836,
8180,-1.1088,0.0335852,1.78811,
8200,-1.11161,0.0460878,1.77657,
8220,-1.11385,0.0563767,1.76426,
8240,-1.11696,0.0628148,1.74973,
8260,-1.11906,0.0678666,1.73353,
8280,-1.12092,0.0725048,1.7164,
8300,-1.12341,0.0758482,1.69747,
8320,-1.12502,0.0781306,1.67795,
8340,-1.1256,0.078249,1.65771,
8360,-1.12498,0.0781266,1.63667,
8380,-1.12422,0.0781886,1.61584,
8400,-1.12342,0.0764532,1.59574,
8420,-1.12439,0.0718247,1.57676,
8440,-1.12411,0.0663673,1.55804,
8460,-1.12251,0.0595221,1.5403,
8480,-1.12387,0.0506349,1.52431,
8500,-1.12461,0.0398787,1.50982,
8520,-1.1237,0.0269246,1.49699,
8540,-1.12186,0.013272,1.48527,
8560,-1.12144,-0.00266216,1.47412,
8580,-1.12103,-0.0187369,1.4656,
8600,-1.11622,-0.0354594,1.45773,
8620,-1.10927,-0.0542812,1.45143,
8640,-1.10193,-0.0724689,1.44618,
8660,-1.09513,-0.0897905,1.44231,
8680,-1.08926,-0.107611,1.44151,
8700,-1.08182,-0.126132,1.44203,
8720,-1.07169,-0.144095,1.44287,
8740,-1.0599,-0.160293,1.44579,
8760,-1.04913,-0.174455,1.4498,
8780,-1.03817,-0.188282,1.45527,
8800,-1.02758,-0.201353,1.46202,
8820,-1.0173,-0.212583,1.46894,
8840,-1.00813,-0.222216,1.47752,
8860,-0.999568,-0.230899,1.48669,
8880,-0.991176,-0.237404,1.49697,
8900,-0.984423,-0.24149,1.509,
8920,-0.979849,-0.244382,1.52324,
8940,-0.979772,-0.245647,1.5387,
8960,-0.983187,-0.245199,1.55624,
8980,-0.987993,-0.243689,1.57546,
9000,-0.992231,-0.241548,1.59397,
9020,-0.999461,-0.237422,1.6128,
9040,-1.0053,-0.231403,1.63181,
9060,-1.01081,-0.223184,1.65039,
9080,-1.01821,-0.213078,1.669,
9100,-1.02764,-0.201593,1.68594,
9120,-1.03586,-0.188041,1.70367,
9140,-1.04295,-0.173988,1.72069,
9160,-1.0526,-0.157496,1.7359,
9180,-1.0591,-0.140808,1.75068,
9200,-1.06512,-0.123056,1.76415,
9220,-1.07156,-0.104379,1.77521,
9240,-1.08031,-0.0861059,1.78437,
9260,-1.08989,-0.0675317,1.79097,
9280,-1.09687,-0.0489777,1.7965,
9300,-1.10343,-0.0313527,1.79916,
9320,-1.11039,-0.0137983,1.79936,
9340,-1.11793,0.00245741,1.79804,
9360,-1.12415,0.0171743,1.79429,
9380,-1.1315,0.0303129,1.78837,
9400,-1.13804,0.0423678,1.78126,
9420,-1.14537,0.0532724,1.7722,
9440,-1.15089,0.0625003,1.7613,
9460,-1.15611,0.0702767,1.74901,
9480,-1.1608,0.0774882,1.73496,
9500,-1.16484,0.0840117,1.71933,
9520,-1.16865,0.0892759,1.70191,
9540,-1.16965,0.0938622,1.68371,
9560,-1.17151,0.0968909,1.66495,
9580,-1.17461,0.0972508,1.64553,
9600,-1.17482,0.0963514,1.6256,
9620,-1.17391,0.095581,1.6053,
9640,-1.17415,0.0931274,1.58566,
9660,-1.17469,0.0891146,1.56584,
9680,-1.17492,0.0829451,1.54748,
9700,-1.1758,0.0752588,1.52989,
9720,-1.17492,0.0654265,1.51355,
9740,-1.17471,0.0531129,1.4989,
9760,-1.17204,0.0397559,1.48575,
9780,-1.16997,0.024046,1.473,
9800,-1.1676,0.00695282,1.46204,
9820,-1.16292,-0.0104995,1.45295,
9840,-1.1575,-0.0285638,1.44581,
9860,-1.15156,-0.0474526,1.44026,
9870,-1.14525,-0.0667374,1.43597,
9890,-1.1366,-0.0860499,1.43347,
9910,-1.12648,-0.10508,1.43264,
9930,-1.11595,-0.123426,1.43406,
9950,-1.1019,-0.141498,1.436,
9970,-1.08768,-0.159484,1.43956,
9990,-1.0742,-0.176662,1.4449,
10010,-1.06281,-0.193198,1.4528,
10030,-1.0516,-0.209004,1.46138,
10050,-1.03863,-0.222552,1.47135,
10070,-1.02588,-0.233185,1.48256,
10090,-1.0133,-0.24193,1.49589,
10110,-1.00529,-0.248857,1.51046,
10130,-1.00072,-0.254543,1.52687,
10150,-0.996938,-0.258926,1.54386,
10170,-0.993503,-0.260794,1.56222,
10190,-0.990916,-0.260645,1.58102,
10210,-0.992082,-0.257619,1.59943,
10230,-0.993887,-0.252355,1.61798,
10250,-0.991406,-0.244095,1.63626,
10270,-0.98654,-0.232886,1.65202,
10290,-0.981873,-0.219091,1.66652,
10310,-0.977087,-0.203146,1.67961,
10330,-0.972267,-0.185129,1.69102,
10350,-0.971486,-0.165369,1.70243,
10370,-0.97104,-0.145881,1.71377,
10390,-0.970626,-0.126328,1.72448,
10410,-0.972273,-0.106121,1.73392,
10430,-0.97877,-0.0857158,1.74231,
10450,-0.987367,-0.0653714,1.75036,
10470,-0.999851,-0.0461505,1.75644,
10490,-1.01182,-0.0280827,1.76227,
10510,-1.02127,-0.0104446,1.76746,
10530,-1.03385,0.00680121,1.77038,
10550,-1.04861,0.0235718,1.77135,
10570,-1.05942,0.0380542,1.77094,
10590,-1.06738,0.0510495,1.76847,
10610,-1.07407,0.0628885,1.76392,
10630,-1.08198,0.0738254,1.75696,
10650,-1.08858,0.0825934,1.74921,
10670,-1.09592,0.0891161,1.73913,
10690,-1.10178,0.0948392,1.7271,
10710,-1.10835,0.0992208,1.71337,
10730,-1.11361,0.100894,1.69835,
10750,-1.11772,0.101139,1.68225,
10770,-1.12276,0.0994753,1.66498,
10790,-1.12934,0.0975676,1.647,
10810,-1.13578,0.0949711,1.62909,
10830,-1.14052,0.0921199,1.6109,
10850,-1.14329,0.0883198,1.59219,
10870,-1.14568,0.0837567,1.57371,
10890,-1.14669,0.0780372,1.55519,
10910,-1.14687,0.0707939,1.5367,
10930,-1.14523,0.0631309,1.51893,
10950,-1.14318,0.0548502,1.50182,
10970,-1.14088,0.0457942,1.4865,
10990,-1.13732,0.0355043,1.47187,
11010,-1.13303,0.0246051,1.45906,
11030,-1.12988,0.0128302,1.44932,
11050,-1.12656,-0.00128233,1.4415,
11070,-1.11995,-0.0172098,1.43473,
11090,-1.11483,-0.032775,1.43037,
11110,-1.10839,-0.0497747,1.42942,
11130,-1.09979,-0.0692459,1.43008,
11150,-1.09309,-0.0894555,1.43201,
11170,-1.08475,-0.108475,1.4338,
11190,-1.07477,-0.126008,1.43885,
11210,-1.06236,-0.142463,1.44636,
11230,-1.05113,-0.158678,1.45452,
11250,-1.042,-0.174446,1.46293,
11270,-1.03178,-0.189455,1.47401,
11290,-1.02008,-0.203064,1.48689,
11310,-1.01016,-0.215732,1.50087,
11330,-1.00108,-0.226814,1.51599,
11350,-0.993143,-0.236438,1.53234,
11370,-0.988016,-0.244139,1.55081,
11390,-0.983882,-0.250673,1.57039,
11410,-0.983741,-0.255208,1.59042,
11430,-0.983794,-0.258063,1.61127,
11450,-0.982806,-0.258846,1.63212,
11470,-0.982614,-0.256281,1.65196,
11490,-0.983769,-0.250607,1.67226,
11510,-0.986427,-0.241682,1.69224,
11530,-0.98937,-0.230825,1.71092,
11550,-0.990982,-0.217412,1.7282,
11570,-0.991326,-0.201828,1.74505,
11590,-0.993692,-0.183763,1.76069,
11610,-1.00134,-0.164025,1.7737,
11630,-1.0093,-0.143664,1.78536,
11650,-1.01684,-0.122208,1.79613,
11670,-1.02514,-0.0998685,1.80565,
11690,-1.03607,-0.0781632,1.8118,
11710,-1.04779,-0.0562722,1.81652,
11730,-1.05939,-0.035727,1.81929,
11750,-1.07076,-0.0159734,1.82001,
11770,-1.08063,0.00254488,1.81839,
11790,-1.09009,0.0195466,1.81404,
11810,-1.0984,0.0360438,1.80848,
11830,-1.10557,0.0509967,1.80158,
11850,-1.11266,0.063226,1.79129,
11870,-1.11793,0.0737538,1.77904,
11890,-1.12353,0.0836668,1.76557,
11910,-1.13017,0.0898587,1.75092,
11930,-1.14065,0.0918791,1.73497,
11950,-1.15333,0.0930876,1.71878,
11970,-1.16311,0.0925613,1.70295,
11990,-1.17167,0.0905458,1.6873,
12010,-1.1789,0.0866038,1.66979,
12030,-1.18481,0.0826582,1.6518,
12050,-1.18954,0.077183,1.63308,
12070,-1.19338,0.0698052,1.61349,
12090,-1.19449,0.0617992,1.59348,
12110,-1.19483,0.0531425,1.57458,
12130,-1.1944,0.0423562,1.55523,
12150,-1.19066,0.0313839,1.53695,
12170,-1.18764,0.0203711,1.5202,
12190,-1.18302,0.00722033,1.50553,
12210,-1.17878,-0.00772889,1.49122,
12230,-1.17213,-0.0223746,1.4795,
12250,-1.16724,-0.037627,1.47027,
12270,-1.16204,-0.0549923,1.46242,
12290,-1.15526,-0.0720375,1.45609,
12310,-1.14901,-0.0889454,1.45223,
12330,-1.14292,-0.10691,1.45035,
12350,-1.13442,-0.124759,1.44989,
12370,-1.12547,-0.141667,1.45236,
12390,-1.1154,-0.158772,1.4569,
12410,-1.1072,-0.175707,1.46408,
12430,-1.09907,-0.193456,1.4716,
12450,-1.08845,-0.210955,1.48069,
12470,-1.07783,-0.226673,1.49144,
12490,-1.07115,-0.239828,1.50491,
12510,-1.06593,-0.251491,1.52053,
12530,-1.0608,-0.262097,1.53732,
12550,-1.05558,-0.271367,1.55508,
12570,-1.05497,-0.278987,1.575,
12590,-1.05772,-0.285008,1.59633,
12610,-1.06008,-0.28962,1.61887,
12630,-1.05893,-0.292245,1.64025,
12650,-1.05854,-0.291487,1.66162,
12670,-1.06132,-0.286946,1.68457,
12690,-1.06323,-0.279925,1.70659,
12710,-1.06496,-0.26875,1.72685,
12730,-1.0653,-0.254678,1.74685,
12750,-1.06915,-0.237664,1.76631,
12770,-1.07546,-0.218987,1.78356,
12790,-1.0798,-0.197504,1.79878,
12810,-1.08376,-0.174088,1.81189,
12830,-1.09401,-0.148502,1.82195,
12850,-1.10441,-0.123427,1.83025,
12870,-1.11383,-0.0995975,1.83698,
12890,-1.12249,-0.0758989,1.84093,
12910,-1.13364,-0.052835,1.8431,
12930,-1.14515,-0.0331875,1.84201,
12950,-1.15483,-0.017111,1.83849,
12970,-1.16308,-0.00363816,1.8329,
12990,-1.16872,0.00839157,1.82436,
13010,-1.17355,0.0182757,1.81284,
13030,-1.1799,0.0258244,1.80001,
13050,-1.18629,0.0320297,1.7862,
13070,-1.19278,0.0362259,1.76961,
13090,-1.19813,0.040429,1.75187,
13110,-1.20223,0.0432957,1.7322,
13130,-1.20525,0.0438012,1.71134,
13150,-1.20854,0.0433031,1.6889,
13170,-1.21336,0.0431758,1.66688,
13190,-1.21641,0.040518,1.64527,
13200,-1.2201,0.0370049,1.62478,
13220,-1.22084,0.0299069,1.60467,
13240,-1.22463,0.0220323,1.58655,
13260,-1.2304,0.012535,1.57022,
13280,-1.23167,-0.00141099,1.55623,
13300,-1.23137,-0.0178261,1.54287,
13320,-1.22871,-0.0336622,1.53148,
13340,-1.22505,-0.0504278,1.522,
13360,-1.21799,-0.0703329,1.5143,
13380,-1.20721,-0.090292,1.50787,
13400,-1.19501,-0.109269,1.50235,
13420,-1.18372,-0.127895,1.50003,
13440,-1.17017,-0.146361,1.49801,
13460,-1.15428,-0.164021,1.49742,
13480,-1.13613,-0.180203,1.49805,
13500,-1.12152,-0.194803,1.50045,
13520,-1.10741,-0.209004,1.50449,
13540,-1.09146,-0.222519,1.51062,
13560,-1.07363,-0.235567,1.51804,
13580,-1.06117,-0.247191,1.5279,
13600,-1.05586,-0.257734,1.5405,
13620,-1.05449,-0.266948,1.55608,
13640,-1.04838,-0.275662,1.57232,
13660,-1.0388,-0.281332,1.58916,
13680,-1.02933,-0.283827,1.60656,
13700,-1.02643,-0.282616,1.6248,
13720,-1.02879,-0.278445,1.64638,
13740,-1.0303,-0.273388,1.66801,
13760,-1.0323,-0.265596,1.68986,
13780,-1.03285,-0.255088,1.71084,
13800,-1.03707,-0.241531,1.73242,
13820,-1.04683,-0.226154,1.75352,
13840,-1.05461,-0.209879,1.77398,
13860,-1.06165,-0.192333,1.7924,
13880,-1.06692,-0.171567,1.80771,
13900,-1.07244,-0.147665,1.81946,
13920,-1.07858,-0.121018,1.82922,
13940,-1.0855,-0.0960271,1.83662,
13960,-1.09116,-0.072904,1.84171,
13980,-1.09491,-0.0515287,1.84484,
14000,-1.09791,-0.0311467,1.84641,
14020,-1.10201,-0.0127091,1.8446,
14040,-1.10715,0.00437839,1.84012,
14060,-1.11354,0.0211748,1.83416,
14080,-1.12076,0.0347691,1.82544,
14100,-1.13053,0.0464752,1.81475,
14120,-1.14146,0.0575137,1.80369,
14140,-1.15512,0.0658879,1.79271,
14160,-1.17007,0.0697822,1.7807,
14180,-1.18545,0.0726621,1.76773,
14200,-1.19833,0.075423,1.75412,
14220,-1.21104,0.0777646,1.73972,
14240,-1.223,0.0787342,1.72502,
14260,-1.23378,0.0777899,1.70881,
14280,-1.24265,0.0768009,1.69209,
14300,-1.2524,0.0743643,1.67446,
14320,-1.26236,0.0696199,1.65633,
14340,-1.26844,0.0642492,1.63813,
14360,-1.27488,0.0571959,1.6203,
14380,-1.28142,0.0477914,1.60305,
14400,-1.2833,0.0370031,1.58649,
14420,-1.28472,0.024222,1.57003,
14440,-1.28659,0.00932677,1.55438,
14460,-1.28511,-0.00604875,1.53992,
14480,-1.28131,-0.0231866,1.52667,
14500,-1.28131,-0.0427089,1.51495,
14520,-1.27871,-0.0605742,1.50584,
14540,-1.27334,-0.0781327,1.49944,
14560,-1.26414,-0.0982028,1.49484,
14580,-1.25302,-0.11819,1.4913,
14600,-1.24315,-0.137199,1.49016,
14620,-1.23407,-0.155997,1.49156,
14640,-1.21991,-0.174907,1.4942,
14660,-1.20284,-0.193285,1.49716,
14680,-1.1864,-0.209255,1.5024,
14700,-1.17016,-0.223898,1.50992,
14720,-1.15286,-0.238563,1.51962,
14740,-1.13738,-0.250889,1.53017,
14760,-1.12163,-0.260659,1.54349,
14780,-1.10511,-0.268808,1.55832,
14800,-1.09067,-0.27547,1.57365,
14820,-1.07958,-0.278754,1.59017,
14840,-1.07277,-0.279547,1.60847,
14860,-1.06911,-0.277737,1.62743,
14880,-1.06548,-0.273575,1.64704,
14900,-1.06244,-0.267282,1.66803,
14920,-1.06436,-0.258534,1.68932,
14940,-1.06754,-0.247835,1.71096,
14960,-1.07044,-0.235152,1.73065,
14980,-1.07115,-0.219352,1.7502,
15000,-1.07435,-0.202687,1.76812,
15020,-1.0814,-0.184541,1.78512,
15040,-1.08972,-0.164602,1.80061,
15060,-1.0962,-0.144162,1.81346,
15080,-1.10691,-0.122833,1.82334,
15100,-1.11737,-0.0996957,1.83264,
15120,-1.13038,-0.0766483,1.83815,
15130,-1.14353,-0.0553926,1.84223,
15150,-1.15644,-0.0357924,1.84512,
15170,-1.16826,-0.0159918,1.84347,
15190,-1.17707,0.00234616,1.83606,
15210,-1.18563,0.0190189,1.82554,
15230,-1.19706,0.0334822,1.81488,
15250,-1.21003,0.0435329,1.80308,
15270,-1.22378,0.0489403,1.79086,
15290,-1.2361,0.0512733,1.77758,
15310,-1.24865,0.0522935,1.76187,
15330,-1.25957,0.0504414,1.7446,
15350,-1.27232,0.0470431,1.72497,
15370,-1.28293,0.0434509,1.70504,
15390,-1.2908,0.0361645,1.68337,
15410,-1.29907,0.0283359,1.66116,
15430,-1.30416,0.0195208,1.63932,
15450,-1.30638,0.00777467,1.61744,
15470,-1.30772,-0.00399233,1.59537,
15490,-1.30827,-0.0154882,1.57386,
15510,-1.30688,-0.0272687,1.55453,
15530,-1.30512,-0.0393799,1.53733,
15550,-1.30159,-0.0525355,1.52145,
15570,-1.29694,-0.06662,1.50701,
15590,-1.29326,-0.0801761,1.49516,
15610,-1.28825,-0.0953999,1.48593,
15630,-1.27946,-0.112683,1.47839,
15650,-1.26815,-0.131763,1.47256,
15670,-1.25713,-0.15081,1.46763,
15690,-1.24516,-0.168884,1.4662,
15710,-1.23071,-0.187046,1.46598,
15730,-1.21327,-0.205144,1.46628,
15750,-1.19529,-0.222623,1.46881,
15770,-1.17737,-0.239162,1.47426,
15790,-1.16156,-0.255442,1.48162,
15810,-1.14725,-0.269905,1.4895,
15830,-1.1322,-0.283796,1.49971,
15850,-1.11616,-0.296596,1.51164,
15870,-1.10114,-0.307903,1.52423,
15890,-1.08897,-0.317101,1.53803,
15910,-1.07699,-0.324789,1.55285,
15930,-1.06625,-0.330267,1.56881,
15950,-1.05851,-0.33299,1.58501,
15970,-1.05493,-0.332237,1.60268,
15990,-1.05608,-0.328905,1.6226,
16010,-1.06097,-0.324002,1.64392,
16030,-1.06551,-0.316956,1.66493,
16050,-1.06754,-0.307618,1.68453,
16070,-1.07323,-0.294513,1.70336,
16090,-1.08559,-0.277859,1.72287,
16110,-1.0962,-0.259332,1.74228,
16130,-1.10263,-0.240092,1.75907,
16150,-1.11127,-0.218544,1.7751,
16170,-1.12162,-0.19498,1.78981,
16190,-1.13225,-0.170165,1.80298,
16210,-1.14057,-0.146678,1.81266,
16230,-1.14878,-0.122573,1.81997,
16250,-1.15664,-0.0983854,1.82593,
16270,-1.16331,-0.0745714,1.82938,
16290,-1.17057,-0.0518443,1.82995,
16310,-1.17885,-0.0310831,1.8268,
16330,-1.18695,-0.0115503,1.82177,
16350,-1.19447,0.00623573,1.81559,
16370,-1.20381,0.0211737,1.80727,
16390,-1.21104,0.0331372,1.7969,
16410,-1.21921,0.0423727,1.78533,
16430,-1.2285,0.0478352,1.77287,
16450,-1.23555,0.0501906,1.75908,
16470,-1.23891,0.0502344,1.74445,
16490,-1.24169,0.0484253,1.72852,
16510,-1.24393,0.0453751,1.71209,
16530,-1.24738,0.0403847,1.69536,
16550,-1.24836,0.0333859,1.67841,
16570,-1.24682,0.0252373,1.661,
16590,-1.24379,0.017511,1.64399,
16610,-1.24212,0.00966218,1.62671,
16630,-1.23784,0.000669837,1.61098,
16650,-1.23209,-0.00997316,1.59434,
16670,-1.22599,-0.0197796,1.57935,
16690,-1.21918,-0.0298649,1.56614,
16710,-1.21172,-0.0406905,1.55431,
16730,-1.20228,-0.0519787,1.5441,
16750,-1.19267,-0.0637282,1.53607,
16770,-1.18095,-0.0765244,1.53087,
16790,-1.16952,-0.0913863,1.52761,
16810,-1.16281,-0.10596,1.52666,
16830,-1.15339,-0.11983,1.52834,
16850,-1.14085,-0.135788,1.53077,
16870,-1.12611,-0.152363,1.53444,
16890,-1.11049,-0.167812,1.5392,
16910,-1.09563,-0.180913,1.54568,
16930,-1.08133,-0.193643,1.55388,
16950,-1.06545,-0.206605,1.5633,
16970,-1.04921,-0.218412,1.57379,
16990,-1.0339,-0.228851,1.58518,
17010,-1.02305,-0.238163,1.59727,
17030,-1.0143,-0.246721,1.6109,
17050,-1.00716,-0.255494,1.6251,
17070,-0.998736,-0.262976,1.63873,
17090,-0.989891,-0.268827,1.65165,
17110,-0.983215,-0.273,1.66615,
17130,-0.982424,-0.275425,1.68104,
17150,-0.985333,-0.275304,1.69655,
17170,-0.98695,-0.275269,1.71217,
17190,-0.988389,-0.273027,1.72771,
17210,-0.990302,-0.267205,1.74289,
17230,-0.998582,-0.259273,1.75862,
17250,-1.00973,-0.24959,1.77335,
17270,-1.01921,-0.238234,1.78723,
17290,-1.02717,-0.22538,1.79991,
17310,-1.03667,-0.209901,1.81184,
17330,-1.047,-0.193199,1.82195,
17350,-1.05963,-0.17514,1.82882,
17370,-1.07071,-0.156191,1.8349,
17390,-1.07889,-0.138634,1.83933,
17410,-1.0859,-0.120848,1.84193,
17430,-1.09319,-0.103343,1.84196,
17450,-1.10205,-0.0862103,1.84174,
17470,-1.10821,-0.0713876,1.83882,
17490,-1.11364,-0.057036,1.83406,
17510,-1.11898,-0.0426702,1.8268,
17530,-1.12394,-0.0296648,1.81808,
17550,-1.12923,-0.0188579,1.8078,
17570,-1.13444,-0.00871508,1.79585,
17590,-1.13936,0.000306934,1.7822,
17610,-1.14421,0.00691026,1.76683,
17630,-1.14772,0.0117302,1.75064,
17650,-1.14965,0.014733,1.73437,
17670,-1.15194,0.0155529,1.71663,
17690,-1.15491,0.0148289,1.69791,
17710,-1.15582,0.012352,1.67965,
17730,-1.15322,0.00853164,1.66131,
17750,-1.15156,0.00283686,1.64252,
17770,-1.14983,-0.00243888,1.62541,
17790,-1.14829,-0.00920359,1.60937,
17810,-1.14552,-0.0182692,1.59434,
17830,-1.14034,-0.0281023,1.58103,
17850,-1.13437,-0.0382399,1.56835,
17870,-1.12948,-0.049313,1.55746,
17890,-1.12328,-0.061503,1.54863,
17910,-1.11568,-0.0742591,1.53931,
17930,-1.10609,-0.0869127,1.53129,
17950,-1.09765,-0.0974366,1.52568,
17970,-1.09018,-0.107176,1.52176,
17990,-1.08168,-0.11915,1.51884,
18010,-1.06825,-0.132023,1.51584,
18030,-1.05386,-0.142387,1.51463,
18050,-1.04105,-0.151809,1.51607,
18070,-1.03029,-0.162389,1.52085,
18090,-1.0192,-0.174409,1.52722,
18110,-1.0106,-0.185332,1.53494,
18130,-1.00143,-0.195211,1.54361,
18150,-0.993728,-0.202944,1.55394,
18170,-0.984872,-0.210995,1.56576,
18190,-0.977752,-0.218959,1.57835,
18210,-0.972495,-0.225767,1.59201,
18230,-0.967288,-0.2313,1.60692,
18250,-0.964138,-0.23533,1.62325,
18270,-0.963165,-0.238816,1.64133,
18290,-0.962865,-0.240726,1.66066,
18310,-0.962878,-0.239244,1.68063,
18330,-0.964497,-0.236002,1.7012,
18350,-0.96605,-0.23171,1.72132,
18370,-0.970332,-0.2253,1.7413,
18390,-0.977436,-0.215917,1.75973,
18410,-0.984646,-0.203662,1.77695,
18430,-0.988485,-0.189335,1.7929,
18450,-0.995462,-0.172323,1.80778,
18460,-1.00363,-0.154199,1.8226,
18480,-1.01408,-0.13544,1.83525,
18500,-1.02419,-0.117603,1.8468,
18520,-1.03549,-0.0995198,1.85594,
18540,-1.04588,-0.0797098,1.86247,
18560,-1.05473,-0.0615488,1.86602,
18580,-1.06393,-0.0439192,1.86745,
18600,-1.0749,-0.0266274,1.86517,
18620,-1.0835,-0.00990103,1.8617,
18640,-1.09141,0.00506078,1.85592,
18660,-1.09842,0.0197387,1.84888,
18680,-1.10737,0.0336934,1.83914,
18700,-1.11478,0.0461205,1.82865,
18720,-1.11955,0.0561224,1.81725,
18740,-1.12462,0.0629775,1.80393,
18760,-1.1319,0.0694473,1.78929,
18780,-1.14,0.0741895,1.77371,
18800,-1.14504,0.074433,1.75765,
18820,-1.14764,0.0737891,1.74184,
18840,-1.15041,0.0714968,1.72492,
18860,-1.15373,0.067238,1.7078,
18880,-1.15556,0.0613843,1.69047,
18900,-1.15561,0.0538758,1.67405,
18920,-1.15289,0.0449448,1.65711,
18940,-1.15151,0.0348388,1.64086,
18960,-1.14943,0.0232181,1.62599,
18980,-1.14689,0.0106073,1.61202,
19000,-1.14373,-0.00310281,1.59985,
19020,-1.13928,-0.0178041,1.58844,
19040,-1.13555,-0.0330413,1.57887,
19060,-1.12906,-0.0480809,1.57146,
19080,-1.1209,-0.0627755,1.56625,
19100,-1.11328,-0.077581,1.56179,
19120,-1.1064,-0.0913532,1.55994,
19140,-1.09821,-0.105754,1.55972,
19160,-1.08749,-0.121053,1.56073,
19180,-1.07371,-0.135819,1.56164,
19200,-1.06173,-0.148203,1.56486,
19220,-1.05207,-0.159288,1.56999,
19240,-1.04162,-0.170266,1.57601,
19260,-1.02985,-0.181219,1.58366,
19280,-1.01676,-0.190175,1.59353,
19300,-1.00751,-0.198577,1.60472,
19320,-0.998525,-0.206665,1.61702,
19340,-0.987487,-0.2145,1.62972,
19360,-0.97861,-0.22006,1.64411,
19380,-0.971989,-0.224581,1.66035,
19400,-0.966549,-0.227389,1.67617,
19420,-0.957837,-0.228737,1.69275,
19440,-0.946807,-0.22831,1.70956,
19460,-0.941449,-0.224338,1.72657,
19480,-0.944319,-0.217119,1.74492,
19500,-0.948009,-0.208746,1.76369,
19520,-0.950239,-0.198773,1.78112,
19540,-0.951421,-0.185705,1.79739,
19560,-0.960263,-0.16903,1.81207,
19580,-0.971619,-0.151497,1.82658,
19600,-0.981784,-0.133836,1.8382,
19620,-0.990915,-0.115389,1.84948,
19640,-1.00254,-0.0965316,1.85927,
19660,-1.01825,-0.0779658,1.86638,
19680,-1.02985,-0.0621133,1.8696,
19700,-1.03888,-0.0462866,1.8698,
19720,-1.04347,-0.0287018,1.86769,
19740,-1.04828,-0.0112986,1.86412,
19760,-1.05415,0.00305328,1.85729,
19780,-1.05972,0.0164371,1.84912,
19800,-1.06412,0.0293832,1.83906,
19820,-1.06917,0.0411298,1.82745,
19840,-1.07652,0.0505462,1.81371,
19860,-1.08292,0.0591737,1.79843,
19880,-1.08704,0.0663917,1.78148,
19900,-1.09248,0.0712184,1.76337,
19920,-1.10112,0.074778,1.74453,
19940,-1.10711,0.0782274,1.72527,
19960,-1.1087,0.0788465,1.70522,
19980,-1.10807,0.0772793,1.68428,
20000,-1.11188,0.0767017,1.66424,
20020,-1.1208,0.0749289,1.64563,
20040,-1.12431,0.068326,1.62788,
20060,-1.12504,0.0613579,1.60995,
20080,-1.12236,0.0543339,1.59356,
20100,-1.12749,0.0442338,1.57971,
20120,-1.12897,0.0299252,1.567,
20140,-1.12693,0.014087,1.55494,
20160,-1.11971,-0.000672102,1.54538,
20180,-1.11252,-0.0175658,1.5378,
20200,-1.1042,-0.0369007,1.5328,
20220,-1.09524,-0.0564358,1.52965,
20240,-1.08075,-0.0761949,1.52883,
20260,-1.06461,-0.095387,1.52988,
20280,-1.04891,-0.113736,1.53337,
20300,-1.0354,-0.133887,1.53901,
20320,-1.02135,-0.154169,1.54584,
20340,-1.00611,-0.173477,1.55521,
20360,-0.992725,-0.189866,1.56759,
20370,-0.982982,-0.20487,1.58199,
20390,-0.976748,-0.218544,1.59904,
20410,-0.968955,-0.230977,1.61645,
20430,-0.960503,-0.240827,1.63473,
20450,-0.954562,-0.247803,1.65348,
20470,-0.949768,-0.250958,1.67344,
20490,-0.9471,-0.250256,1.69276,
20510,-0.94792,-0.246541,1.71332,
20530,-0.949531,-0.240856,1.73366,
20550,-0.949271,-0.232507,1.75403,
20570,-0.952159,-0.220978,1.77191,
20590,-0.956716,-0.207274,1.78832,
20610,-0.960507,-0.191507,1.80335,
20630,-0.966015,-0.173149,1.81771,
20650,-0.975463,-0.153923,1.82999,
20670,-0.987254,-0.134071,1.84044,
20690,-1.00132,-0.114769,1.84881,
20710,-1.0153,-0.0947573,1.85574,
20730,-1.02861,-0.0741718,1.86064,
20750,-1.03967,-0.0538583,1.86316,
20770,-1.05021,-0.0349897,1.86288,
20790,-1.05894,-0.0171396,1.85965,
20810,-1.0675,0.000920028,1.85475,
20830,-1.07534,0.0187261,1.84783,
20850,-1.08355,0.0328735,1.83883,
20870,-1.09098,0.045415,1.82823,
20890,-1.09799,0.0568181,1.81619,
20910,-1.10392,0.0639916,1.80281,
20930,-1.11044,0.0683976,1.78738,
20950,-1.1163,0.0719542,1.77045,
20970,-1.12254,0.073834,1.75344,
20990,-1.12877,0.0744139,1.73616,
21010,-1.13406,0.0727909,1.71838,
21030,-1.13809,0.0694825,1.69942,
21050,-1.14133,0.0656376,1.68036,
21070,-1.14464,0.0608907,1.66063,
21090,-1.14452,0.0545956,1.63983,
21110,-1.14402,0.0483559,1.61885,
21130,-1.14418,0.0424676,1.59879,
21150,-1.14532,0.0352655,1.58037,
21170,-1.14693,0.0258104,1.56251,
21190,-1.14805,0.0157588,1.54827,
21210,-1.14833,0.00454588,1.53653,
21230,-1.14749,-0.00726691,1.52792,
21250,-1.141,-0.0214059,1.5211,
21270,-1.13408,-0.0372331,1.51502,
21290,-1.12505,-0.0524779,1.51168,
21310,-1.11489,-0.0681021,1.51164,
21330,-1.10479,-0.0856259,1.5142,
21350,-1.09405,-0.10593,1.51721,
21370,-1.08339,-0.124822,1.5218,
21390,-1.06958,-0.1418,1.52813,
21410,-1.05685,-0.158329,1.53775,
21430,-1.0467,-0.175072,1.54805,
21450,-1.0387,-0.190833,1.56077,
21470,-1.0279,-0.205955,1.57446,
21490,-1.01808,-0.220196,1.58892,
21510,-1.0092,-0.23207,1.60416,
21530,-0.999038,-0.24096,1.62058,
21550,-0.991167,-0.247776,1.63691,
21570,-0.985127,-0.253821,1.6534,
21590,-0.979058,-0.258411,1.66955,
21610,-0.972606,-0.260857,1.68653,
21630,-0.973314,-0.261063,1.70394,
21650,-0.977451,-0.25945,1.72233,
21670,-0.980724,-0.255767,1.74054,
21690,-0.982024,-0.24975,1.75797,
21710,-0.982273,-0.24155,1.77498,
21730,-0.984742,-0.231135,1.79068,
21750,-0.990279,-0.217934,1.80519,
21770,-0.998921,-0.202652,1.81907,
21790,-1.00626,-0.187856,1.83204,
21810,-1.01126,-0.172113,1.84273,
21830,-1.01823,-0.154725,1.85102,
21850,-1.02739,-0.136442,1.85779,
21870,-1.03709,-0.119309,1.86133,
21890,-1.04727,-0.103643,1.86141,
21910,-1.05492,-0.0880512,1.85825,
21930,-1.06318,-0.071807,1.8532,
21950,-1.07064,-0.0553109,1.84786,
21970,-1.07882,-0.0388516,1.84052,
21990,-1.08611,-0.0229602,1.83202,
22010,-1.09198,-0.00797227,1.82163,
22030,-1.09821,0.00666519,1.80954,
22050,-1.10528,0.0186534,1.79632,
22070,-1.11081,0.0293143,1.78135,
22090,-1.11545,0.0381275,1.76376,
22110,-1.11905,0.0464509,1.74606,
22130,-1.12169,0.0525574,1.72751,
22150,-1.12576,0.0556595,1.70776,
22170,-1.13088,0.0573723,1.68708,
22190,-1.1356,0.0569797,1.66741,
22210,-1.13792,0.0544134,1.64808,
22230,-1.13967,0.0481232,1.62911,
22250,-1.14057,0.0397786,1.61003,
22270,-1.1423,0.0306548,1.5918,
22290,-1.14149,0.0189897,1.57476,
22310,-1.14081,0.00518229,1.55788,
22330,-1.1378,-0.00854506,1.54167,
22350,-1.13696,-0.0225631,1.52791,
22370,-1.13344,-0.0392417,1.51572,
22390,-1.12501,-0.0589243,1.50392,
22410,-1.11705,-0.0778517,1.49378,
22430,-1.10947,-0.0946581,1.48707,
22450,-1.10274,-0.112073,1.48254,
22470,-1.0947,-0.130889,1.48008,
22490,-1.08306,-0.149046,1.47977,
22510,-1.07079,-0.16658,1.48054,
22530,-1.05794,-0.182867,1.48288,
22550,-1.04474,-0.198351,1.48704,
22570,-1.02883,-0.213308,1.49264,
22590,-1.01446,-0.226744,1.50013,
22610,-1.00324,-0.238063,1.50992,
22630,-0.992192,-0.248047,1.52163,
22650,-0.979704,-0.257581,1.53541,
22670,-0.969935,-0.265823,1.5501,
22690,-0.965869,-0.271456,1.56639,
22710,-0.964616,-0.275168,1.58446,
22730,-0.964295,-0.276833,1.6057,
22750,-0.968712,-0.276438,1.62734,
22770,-0.974131,-0.272864,1.64952,
22790,-0.979458,-0.267598,1.67192,
22810,-0.98417,-0.259167,1.69428,
22830,-0.987887,-0.24849,1.71568,
22850,-0.994087,-0.237032,1.73649,
22870,-0.999826,-0.224807,1.75634,
22890,-1.00388,-0.211379,1.77472,
22910,-1.00902,-0.195904,1.79165,
22930,-1.01521,-0.17919,1.80772,
22950,-1.02215,-0.161985,1.8221,
22970,-1.02674,-0.143618,1.83325,
22990,-1.03306,-0.12372,1.84279,
23010,-1.04372,-0.103838,1.85198,
23030,-1.05395,-0.084818,1.85893,
23050,-1.06539,-0.0669093,1.86321,
23070,-1.07606,-0.0507577,1.86471,
23090,-1.08648,-0.0348769,1.86327,
23110,-1.09519,-0.0180352,1.85943,
23130,-1.10442,-0.00285596,1.85278,
23150,-1.11556,0.0092919,1.84321,
23170,-1.12423,0.0207935,1.83078,
23190,-1.1329,0.0314373,1.81618,
23210,-1.13852,0.0389202,1.80052,
23230,-1.14407,0.0428327,1.78312,
23250,-1.1471,0.0445252,1.76363,
23270,-1.14934,0.0445644,1.74284,
23290,-1.15068,0.0405702,1.72106,
23310,-1.1518,0.0359023,1.69879,
23330,-1.15089,0.0299837,1.67662,
23350,-1.14865,0.0219838,1.65417,
23370,-1.14531,0.0128346,1.63196,
23390,-1.14145,0.00386162,1.61063,
23410,-1.13924,-0.00560945,1.59067,
23430,-1.13571,-0.016675,1.57246,
23450,-1.13089,-0.0294363,1.55615,
23470,-1.12399,-0.0438072,1.54126,
23490,-1.11888,-0.0577536,1.5285,
23510,-1.11466,-0.0722916,1.5181,
23530,-1.10974,-0.088493,1.50965,
23550,-1.10075,-0.105542,1.50251,
23570,-1.09109,-0.121506,1.4969,
23590,-1.08203,-0.136139,1.49515,
23610,-1.07528,-0.151705,1.49558,
23630,-1.06673,-0.167261,1.49705,
23650,-1.05556,-0.181877,1.49977,
23670,-1.04305,-0.19421,1.50503,
23690,-1.02905,-0.204607,1.51181,
23710,-1.01617,-0.215209,1.52002,
23720,-1.00351,-0.225709,1.52974,
23740,-0.994938,-0.234332,1.54144,
23760,-0.989465,-0.241517,1.55526,
23780,-0.985241,-0.247641,1.57029,
23800,-0.981458,-0.251908,1.58687,
23820,-0.978052,-0.253626,1.6047,
23840,-0.981629,-0.25319,1.62367,
23860,-0.988645,-0.251334,1.64361,
23880,-0.994028,-0.248209,1.6637,
23900,-0.997682,-0.243255,1.68322,
23920,-1.00436,-0.235261,1.70185,
23940,-1.01274,-0.225231,1.72124,
23960,-1.01812,-0.21343,1.73794,
23980,-1.02112,-0.199932,1.75354,
24000,-1.02273,-0.185696,1.76784,
24020,-1.02795,-0.169393,1.7811,
24040,-1.03674,-0.152155,1.7929,
24060,-1.0449,-0.135562,1.80259,
24080,-1.05194,-0.117988,1.80972,
24100,-1.05975,-0.0984264,1.81488,
24120,-1.07139,-0.0780519,1.81818,
24140,-1.08265,-0.0587976,1.81892,
24160,-1.09342,-0.0407519,1.8169,
24180,-1.10277,-0.0229477,1.81331,
24200,-1.11327,-0.00580842,1.80793,
24220,-1.12385,0.00873687,1.80077,
24240,-1.13232,0.0200261,1.79146,
24260,-1.13907,0.0298474,1.7806,
24280,-1.14672,0.0377679,1.76807,
24300,-1.15496,0.0425721,1.75396,
24320,-1.16252,0.0451664,1.739,
24340,-1.16873,0.0444203,1.72287,
24360,-1.17157,0.04124,1.70549,
24380,-1.17511,0.0371458,1.68739,
24400,-1.17762,0.0316715,1.6692,
24420,-1.17809,0.0238761,1.65013,
24440,-1.1762,0.0160306,1.63164,
24460,-1.17443,0.00619368,1.61276,
24480,-1.17245,-0.00509312,1.59444,
24500,-1.16982,-0.0169672,1.57643,
24520,-1.16577,-0.029391,1.5597,
24540,-1.161,-0.0421627,1.5448,
24560,-1.15615,-0.0560321,1.53135,
24580,-1.14952,-0.0711801,1.51903,
24600,-1.14471,-0.0859501,1.50786,
24620,-1.13686,-0.0991892,1.49994,
24640,-1.12863,-0.112798,1.49429,
24660,-1.11843,-0.126574,1.49003,
24680,-1.10729,-0.139757,1.48732,
24700,-1.10034,-0.151814,1.48649,
24720,-1.09335,-0.165037,1.4871,
24740,-1.08148,-0.178339,1.48999,
24760,-1.06753,-0.189679,1.49492,
24780,-1.05732,-0.20005,1.50216,
24800,-1.0485,-0.211514,1.51185,
24820,-1.03735,-0.223651,1.52306,
24840,-1.02578,-0.234906,1.53503,
24860,-1.01378,-0.244722,1.54778,
24880,-1.00158,-0.251601,1.56112,
24900,-0.992114,-0.25546,1.575,
24920,-0.985902,-0.258133,1.59005,
24940,-0.980085,-0.259493,1.60722,
24960,-0.973181,-0.258951,1.62408,
24980,-0.967276,-0.25547,1.64122,
25000,-0.962072,-0.249467,1.65878,
25020,-0.958095,-0.240979,1.67604,
25040,-0.955816,-0.230525,1.69349,
25060,-0.954536,-0.218646,1.71087,
25080,-0.95253,-0.205567,1.72745,
25100,-0.951918,-0.189964,1.74275,
25120,-0.957111,-0.173305,1.75878,
25140,-0.969686,-0.156714,1.77449,
25160,-0.985182,-0.139854,1.78935,
25180,-0.998808,-0.122886,1.80246,
25200,-1.01119,-0.105674,1.81394,
25220,-1.02525,-0.0891751,1.82282,
25240,-1.03792,-0.07449,1.82906,
25260,-1.04872,-0.0606257,1.83233,
25280,-1.05883,-0.0473595,1.8332,
25300,-1.06765,-0.0341808,1.8314,
25320,-1.0779,-0.0218769,1.82711,
25340,-1.08701,-0.0107262,1.8202,
25360,-1.09449,-0.000756443,1.81175,
25380,-1.10222,0.00812221,1.80065,
25400,-1.1107,0.0167818,1.78799,
25420,-1.12102,0.0240808,1.77296,
25440,-1.13049,0.0286172,1.75648,
25460,-1.13693,0.033118,1.73862,
25480,-1.14153,0.0381242,1.71985,
25490,-1.14643,0.041383,1.70095,
25520,-1.1547,0.0417237,1.68113,
25540,-1.16071,0.0402199,1.66121,
25560,-1.16605,0.0372328,1.64216,
25580,-1.1696,0.0322326,1.62432,
25600,-1.17287,0.0260911,1.60686,
25620,-1.17566,0.0181443,1.59022,
25640,-1.17852,0.0092227,1.5754,
25650,-1.18091,-0.00227493,1.56082,
25670,-1.18076,-0.0148747,1.54779,
25690,-1.17941,-0.028436,1.53469,
25710,-1.17828,-0.044408,1.52268,
25730,-1.17679,-0.0609135,1.51247,
25750,-1.17308,-0.0790405,1.50316,
25770,-1.16543,-0.0977204,1.49504,
25790,-1.1555,-0.116506,1.48746,
25810,-1.14297,-0.134917,1.48235,
25830,-1.12991,-0.152089,1.47967,
25850,-1.11549,-0.168455,1.47921,
25870,-1.1002,-0.185339,1.48097,
25890,-1.08492,-0.201658,1.48445,
25910,-1.07053,-0.215891,1.48878,
25930,-1.05652,-0.227383,1.49404,
25950,-1.04117,-0.235919,1.50119,
25970,-1.02602,-0.242332,1.5099,
25990,-1.01532,-0.245964,1.5222,
26010,-1.00545,-0.248334,1.53607,
26030,-0.999125,-0.24968,1.55011,
26050,-0.99435,-0.248893,1.56656,
26070,-0.989507,-0.246585,1.5851,
26090,-0.98374,-0.242673,1.60394,
26110,-0.978712,-0.237433,1.623,
26130,-0.978868,-0.230575,1.64288,
26150,-0.980678,-0.221922,1.66416,
26170,-0.983425,-0.212129,1.68577,
26190,-0.984045,-0.202564,1.70648,
26210,-0.986574,-0.191295,1.72653,
26230,-0.989881,-0.176583,1.74766,
26250,-0.996273,-0.16178,1.7665,
26270,-1.00416,-0.14726,1.78363,
26290,-1.00803,-0.132606,1.79972,
26310,-1.01382,-0.116088,1.81275,
26330,-1.02134,-0.0993073,1.82374,
26350,-1.02885,-0.0838362,1.83256,
26370,-1.03635,-0.0685469,1.83855,
26390,-1.0444,-0.0536787,1.84205,
26410,-1.05367,-0.0395626,1.84235,
26430,-1.06405,-0.025644,1.84021,
26450,-1.07409,-0.0125422,1.83512,
26470,-1.08423,0.000397623,1.82758,
26490,-1.09505,0.0125554,1.81817,
26510,-1.10602,0.0225031,1.80688,
26530,-1.116,0.0309159,1.79342,
26550,-1.12416,0.0386735,1.77912,
26570,-1.13284,0.0438375,1.76422,
26590,-1.13911,0.0464122,1.74956,
26610,-1.14525,0.0470596,1.73314,
26630,-1.15105,0.0476899,1.71593,
26650,-1.16051,0.0474043,1.69828,
26670,-1.16616,0.0445638,1.68047,
26690,-1.17044,0.0414216,1.66315,
26710,-1.17557,0.0380541,1.64576,
26730,-1.17997,0.0331441,1.62879,
26750,-1.18129,0.0252331,1.61344,
26770,-1.17929,0.0167342,1.59871,
26790,-1.17924,0.00749217,1.58478,
26810,-1.17916,-0.00294206,1.57247,
26830,-1.17737,-0.0152807,1.56097,
26850,-1.17129,-0.0295931,1.55083,
26870,-1.16332,-0.0443017,1.54113,
26890,-1.15814,-0.0580798,1.53382,
26910,-1.15456,-0.0723812,1.52817,
26930,-1.14321,-0.0901155,1.5247,
26950,-1.13015,-0.108176,1.52043,
26970,-1.11563,-0.122175,1.51932,
26990,-1.10505,-0.135015,1.52014,
27010,-1.09448,-0.149894,1.52397,
27030,-1.08353,-0.164645,1.52918,
27050,-1.07154,-0.177218,1.53616,
27070,-1.05696,-0.187614,1.54363,
27090,-1.0453,-0.1949,1.55111,
27110,-1.0359,-0.200004,1.56012,
27130,-1.03232,-0.203765,1.57209,
27150,-1.03118,-0.206131,1.58556,
27170,-1.0289,-0.206815,1.60072,
27190,-1.02566,-0.204388,1.61583,
27210,-1.024,-0.199842,1.63034,
27230,-1.02456,-0.193549,1.64507,
27250,-1.02631,-0.18577,1.65938,
27270,-1.02659,-0.177486,1.67378,
27290,-1.02619,-0.168459,1.68763,
27310,-1.02661,-0.157068,1.70184,
27330,-1.02903,-0.143136,1.71673,
27350,-1.03436,-0.129118,1.73157,
27370,-1.04033,-0.115563,1.7455,
27390,-1.04665,-0.100052,1.75896,
27410,-1.05625,-0.0814535,1.77151,
27430,-1.06787,-0.0638683,1.78318,
27450,-1.08039,-0.0483402,1.79244,
27470,-1.09,-0.0323152,1.79997,
27490,-1.099,-0.0173259,1.8059,
27510,-1.11029,-0.00417472,1.80889,
27530,-1.12196,0.00722728,1.80924,
27550,-1.13307,0.0174952,1.80839,
27570,-1.14395,0.025966,1.80622,
27590,-1.1567,0.0337377,1.80255,
27610,-1.17293,0.0405924,1.79653,
27630,-1.18848,0.0472123,1.78978,
27650,-1.20156,0.0534698,1.78232,
27670,-1.21478,0.0581579,1.77253,
27690,-1.22597,0.0613334,1.761,
27710,-1.23388,0.0639426,1.74823,
27730,-1.23965,0.0653081,1.73301,
27750,-1.24541,0.0663311,1.71667,
27770,-1.24932,0.0662691,1.69979,
27790,-1.25302,0.064417,1.68224,
27810,-1.25666,0.0611528,1.66476,
27830,-1.25737,0.0562354,1.64735,
27850,-1.25687,0.0490414,1.62929,
27870,-1.25562,0.0420845,1.61171,
27890,-1.25469,0.0342249,1.59532,
27910,-1.25246,0.0238022,1.57922,
27930,-1.24935,0.0121784,1.56321,
27950,-1.24362,0.00251407,1.54878,
27970,-1.238,-0.00703183,1.5364,
27990,-1.23036,-0.0190938,1.52576,
28010,-1.22092,-0.0317068,1.51583,
28030,-1.21118,-0.0422807,1.50833,
28050,-1.20366,-0.0526046,1.50379,
28070,-1.19529,-0.0653269,1.50223,
28090,-1.18732,-0.0793195,1.5014,
28110,-1.17662,-0.0920842,1.50211,
28130,-1.16547,-0.104615,1.50464,
28150,-1.15612,-0.116337,1.50876,
28170,-1.14455,-0.130327,1.51484,
28190,-1.13285,-0.144279,1.52224,
28210,-1.11748,-0.15691,1.53185,
28230,-1.10593,-0.169019,1.54183,
28250,-1.09426,-0.180494,1.55592,
28270,-1.08297,-0.189083,1.57176,
28290,-1.07274,-0.194741,1.58828,
28310,-1.06337,-0.200017,1.60654,
28330,-1.05744,-0.203664,1.62583,
28350,-1.05618,-0.204191,1.64639,
28370,-1.0539,-0.204105,1.66652,
28390,-1.05247,-0.202515,1.68656,
28410,-1.04948,-0.198554,1.70699,
28430,-1.05209,-0.191699,1.72704,
28450,-1.05858,-0.183956,1.7484,
28470,-1.06452,-0.175862,1.7691,
28490,-1.0668,-0.167033,1.78849,
28510,-1.06942,-0.156171,1.80653,
28530,-1.0755,-0.144239,1.8243,
28550,-1.08407,-0.132059,1.83903,
28570,-1.08993,-0.120226,1.85164,
28590,-1.09283,-0.108831,1.86187,
28610,-1.10162,-0.0960732,1.8688,
28630,-1.11011,-0.0840557,1.87326,
28650,-1.11851,-0.0726315,1.87677,
28670,-1.12323,-0.0622362,1.87646,
28690,-1.1327,-0.0511959,1.8724,
28710,-1.13933,-0.0397673,1.8666,
28730,-1.15219,-0.0287206,1.85808,
28750,-1.16466,-0.0207336,1.84847,
28770,-1.17711,-0.0166278,1.83584,
28790,-1.18574,-0.0114116,1.82253,
28810,-1.19564,-0.00558031,1.80707,
28830,-1.20502,-0.00111979,1.79003,
28850,-1.21106,0.000903875,1.77159,
28870,-1.21594,0.00200135,1.75116,
28890,-1.21957,0.00339488,1.73037,
28910,-1.22236,0.00308556,1.70973,
28930,-1.22433,0.000457317,1.6858,
28950,-1.22576,-0.00247741,1.6629,
28960,-1.22684,-0.00610743,1.64164,
28980,-1.22655,-0.0106448,1.62058,
29000,-1.22495,-0.0174163,1.60099,
29020,-1.22339,-0.0254456,1.58336,
29040,-1.22241,-0.0364783,1.56643,
29060,-1.21963,-0.0486828,1.55232,
29080,-1.21644,-0.0619065,1.54031,
29100,-1.21328,-0.0774148,1.53014,
29120,-1.20578,-0.0952388,1.52075,
29140,-1.19655,-0.112094,1.51322,
29160,-1.18586,-0.128753,1.50845,
29180,-1.17706,-0.144785,1.50536,
29200,-1.16597,-0.16088,1.50463,
29220,-1.15214,-0.17652,1.50524,
29240,-1.13655,-0.190407,1.50739,
29260,-1.12099,-0.201328,1.51206,
29280,-1.1072,-0.210291,1.51813,
29300,-1.09299,-0.217569,1.52556,
29320,-1.07849,-0.222616,1.53487,
29340,-1.0655,-0.225569,1.5456,
29360,-1.05872,-0.226625,1.55874,
29380,-1.05485,-0.227077,1.57427,
29400,-1.05224,-0.227172,1.59038,
29420,-1.04871,-0.225592,1.60783,
29440,-1.04661,-0.222201,1.62688,
29460,-1.04634,-0.217776,1.64677,
29480,-1.04844,-0.212467,1.66752,
29500,-1.04899,-0.205966,1.68813,
29520,-1.04858,-0.198095,1.70753,
29540,-1.04743,-0.187752,1.72686,
29560,-1.05038,-0.175692,1.74474,
29580,-1.05514,-0.162233,1.76169,
29600,-1.05877,-0.148091,1.77698,
29620,-1.06107,-0.132463,1.79127,
29640,-1.06789,-0.116344,1.80368,
29660,-1.07872,-0.0991245,1.81498,
29680,-1.08856,-0.0828859,1.82391,
29700,-1.09819,-0.0666357,1.82985,
29720,-1.10856,-0.0507819,1.8335,
29740,-1.11958,-0.0358155,1.83433,
29760,-1.13229,-0.0216868,1.83194,
29780,-1.14246,-0.00847365,1.8284,
29800,-1.15066,0.00252775,1.82342,
29820,-1.15931,0.012971,1.81626,
29840,-1.16957,0.0233703,1.80732,
29860,-1.17869,0.0312187,1.79642,
29880,-1.18448,0.0362968,1.78354,
29900,-1.19159,0.0416195,1.76762,
29920,-1.19703,0.0471155,1.75029,
29940,-1.20339,0.0496079,1.73191,
29960,-1.21102,0.0488386,1.71345,
29980,-1.21691,0.0470866,1.69437,
30000,-1.22071,0.0440726,1.67456,
30020,-1.22232,0.0388166,1.65398,
30040,-1.22116,0.0317373,1.63295,
30060,-1.21971,0.024254,1.61086,
30080,-1.21672,0.017563,1.59008,
30100,-1.21144,0.00873434,1.56915,
30120,-1.20248,-0.000243723,1.54877,
30140,-1.19301,-0.00818044,1.52966,
30160,-1.18816,-0.0156348,1.5125,
30180,-1.18087,-0.0263664,1.49655,
30200,-1.17184,-0.0383515,1.48276,
30220,-1.16068,-0.0500781,1.47033,
30240,-1.1531,-0.062504,1.46068,
30260,-1.14694,-0.0762091,1.45314,
30280,-1.1381,-0.090962,1.44872,
30300,-1.12741,-0.106281,1.44574,
30320,-1.11402,-0.120868,1.44569,
30340,-1.10135,-0.13547,1.44703,
30360,-1.08789,-0.149573,1.45065,
30380,-1.07456,-0.163223,1.45581,
30400,-1.05971,-0.176794,1.46285,
30420,-1.04454,-0.189863,1.47156,
30440,-1.03268,-0.200041,1.48221,
30460,-1.02354,-0.208394,1.49515,
30480,-1.01644,-0.216032,1.50995,
30500,-1.00726,-0.222329,1.52609,
30520,-0.999017,-0.226876,1.54317,
30540,-0.99331,-0.229808,1.56111,
30560,-0.99283,-0.230928,1.57932,
30580,-0.993585,-0.230412,1.59898,
30600,-0.993885,-0.228038,1.61872,
30620,-0.994354,-0.223886,1.63897,
30640,-0.995884,-0.218104,1.65934,
30660,-1.00091,-0.209973,1.6784,
30680,-1.01012,-0.200427,1.69769,
30700,-1.01891,-0.189805,1.71665,
30720,-1.02619,-0.177908,1.73485,
30740,-1.03321,-0.165423,1.75144,
30760,-1.03798,-0.151435,1.76593,
30780,-1.04643,-0.135434,1.77699,
30800,-1.05374,-0.118501,1.78741,
30820,-1.06182,-0.101985,1.79585,
30840,-1.06878,-0.0850533,1.80285,
30860,-1.0776,-0.067352,1.80662,
30880,-1.08598,-0.0495563,1.80829,
30900,-1.09498,-0.0328937,1.80861,
30910,-1.10412,-0.0176031,1.8072,
30930,-1.11141,-0.00335724,1.80216,
30950,-1.11842,0.0106187,1.79456,
30970,-1.1244,0.022831,1.78583,
30990,-1.13006,0.0341444,1.77501,
31010,-1.1383,0.0441558,1.76245,
31030,-1.14677,0.0527081,1.74894,
31050,-1.15353,0.058319,1.7344,
31070,-1.15991,0.0621739,1.71863,
31090,-1.16552,0.0639564,1.70196,
31110,-1.17095,0.0639885,1.68404,
31130,-1.1797,0.0627884,1.66614,
31150,-1.18792,0.058741,1.64872,
31170,-1.19418,0.0515699,1.63096,
31190,-1.1951,0.0435772,1.61253,
31210,-1.19509,0.0350623,1.59427,
31230,-1.19565,0.0244527,1.5765,
31250,-1.19571,0.0116927,1.55958,
31270,-1.19058,-0.00322471,1.54229,
31290,-1.18102,-0.0175686,1.52616,
31310,-1.1712,-0.0315197,1.5108,
31330,-1.16369,-0.0448806,1.49783,
31350,-1.1552,-0.059601,1.48771,
31370,-1.1446,-0.0756142,1.47927,
31390,-1.13257,-0.0910737,1.47184,
31410,-1.12117,-0.104809,1.46714,
31430,-1.11093,-0.118134,1.46469,
31450,-1.10105,-0.132808,1.46497,
31470,-1.0905,-0.14793,1.4672,
31490,-1.07823,-0.162122,1.4705,
31510,-1.06621,-0.174138,1.47602,
31530,-1.05553,-0.184382,1.48445,
31550,-1.04658,-0.194953,1.49477,
31570,-1.03575,-0.205083,1.50697,
31590,-1.02425,-0.213248,1.52072,
31610,-1.01431,-0.219798,1.53482,
31630,-1.00843,-0.224115,1.54999,
31650,-1.00433,-0.226604,1.56643,
31670,-0.999003,-0.227839,1.58312,
31690,-0.99346,-0.227078,1.60002,
31710,-0.990826,-0.223689,1.6169,
31730,-0.991982,-0.217592,1.63432,
31750,-0.998048,-0.21062,1.65303,
31770,-1.00174,-0.203221,1.67161,
31790,-1.00299,-0.194777,1.68914,
31810,-1.00336,-0.183955,1.70464,
31830,-1.00602,-0.170337,1.71882,
31850,-1.01003,-0.155645,1.73224,
31870,-1.01451,-0.140352,1.74416,
31890,-1.01957,-0.124376,1.75384,
31910,-1.02611,-0.106899,1.76204,
31930,-1.03636,-0.0893422,1.7688,
31950,-1.04744,-0.0725412,1.77461,
31970,-1.05892,-0.0580256,1.77923,
31990,-1.07079,-0.0443266,1.78185,
32010,-1.086,-0.0308031,1.78205,
32030,-1.10132,-0.0183868,1.78173,
32050,-1.11687,-0.00807124,1.77951,
32070,-1.12876,0.00239709,1.77435,
32090,-1.1395,0.0126204,1.7659,
32110,-1.15065,0.0222574,1.75511,
32130,-1.16222,0.0303374,1.74373,
32150,-1.17034,0.0352829,1.7316,
32170,-1.17597,0.0382401,1.71601,
32190,-1.18199,0.0402619,1.6995,
32210,-1.18819,0.0408951,1.68232,
32230,-1.19279,0.0393056,1.66444,
32250,-1.19585,0.0359375,1.64545,
32270,-1.19697,0.0317116,1.62551,
32290,-1.1987,0.0275462,1.60529,
32310,-1.19652,0.0208234,1.58419,
32330,-1.19226,0.0133422,1.56281,
32350,-1.18449,0.0068238,1.54259,
32370,-1.1798,-0.000569344,1.52393,
32390,-1.17342,-0.0097375,1.50721,
32410,-1.16586,-0.0201598,1.49217,
32430,-1.15679,-0.0305247,1.47975,
32450,-1.15084,-0.0420123,1.47066,
32470,-1.14242,-0.0544344,1.46358,
32490,-1.13306,-0.0667681,1.45846,
32510,-1.12221,-0.0785766,1.45558,
32530,-1.11132,-0.0900939,1.45573,
32550,-1.09798,-0.101993,1.45728,
32570,-1.08511,-0.11365,1.46134,
32590,-1.07226,-0.125087,1.46838,
32610,-1.06369,-0.137057,1.47723,
32630,-1.05431,-0.148932,1.48807,
32650,-1.04379,-0.158941,1.50124,
32670,-1.03252,-0.167225,1.51529,
32690,-1.02257,-0.1746,1.52973,
32710,-1.01113,-0.180072,1.54468,
32730,-0.999619,-0.183587,1.55988,
32750,-0.990236,-0.185371,1.57591,
32770,-0.98206,-0.185245,1.59218,
32790,-0.976717,-0.183244,1.60977,
32810,-0.972163,-0.18053,1.62837,
32830,-0.969257,-0.177378,1.64648,
32850,-0.966329,-0.171912,1.66519,
32870,-0.96724,-0.163059,1.68355,
32890,-0.96841,-0.152112,1.70162,
32910,-0.96998,-0.140396,1.71862,
32930,-0.971231,-0.12576,1.73385,
32950,-0.975657,-0.107491,1.74768,
32970,-0.982602,-0.088668,1.75921,
32990,-0.987757,-0.0693738,1.76851,
33010,-0.989733,-0.0488594,1.77719,
33030,-0.994122,-0.0263892,1.7833,
33050,-1.00155,-0.00442965,1.7895,
33070,-1.00885,0.0142921,1.7952,
33090,-1.01761,0.0310812,1.79957,
33110,-1.02769,0.0474826,1.80224,
33130,-1.03918,0.0630371,1.80075,
33150,-1.05342,0.0766814,1.79872,
33170,-1.07057,0.0863017,1.79489,
33190,-1.08538,0.0936149,1.78877,
33210,-1.09858,0.100067,1.77971,
33230,-1.11309,0.104382,1.76972,
33250,-1.12758,0.106349,1.75772,
33270,-1.13754,0.106485,1.74372,
33290,-1.14472,0.105278,1.72822,
33310,-1.15386,0.103746,1.70959,
33330,-1.16211,0.101286,1.69032,
33350,-1.16817,0.0977104,1.66982,
33370,-1.16977,0.0929404,1.64854,
33390,-1.17163,0.0884944,1.62713,
33410,-1.17466,0.0840662,1.60682,
33430,-1.17707,0.0768074,1.58748,
33450,-1.17828,0.0681429,1.56742,
33470,-1.17656,0.0611723,1.54935,
33490,-1.17508,0.0542096,1.53334,
33510,-1.17629,0.0464553,1.51874,
33530,-1.17786,0.0373517,1.50567,
33550,-1.17566,0.0266812,1.49487,
33570,-1.16998,0.0151163,1.48444,
33590,-1.16472,0.00264663,1.47558,
33610,-1.15613,-0.0131225,1.46823,
33630,-1.14795,-0.027927,1.46277,
33650,-1.13729,-0.0424989,1.45945,
33670,-1.12728,-0.057299,1.45727,
33690,-1.11874,-0.0725658,1.45723,
33710,-1.11086,-0.0862996,1.45979,
33730,-1.10313,-0.0998551,1.46456,
33750,-1.09449,-0.113652,1.47131,
33770,-1.08313,-0.125359,1.4792,
33790,-1.07196,-0.13517,1.48888,
33810,-1.06295,-0.144306,1.49992,
33830,-1.05341,-0.152544,1.51284,
33850,-1.04299,-0.159481,1.52645,
33870,-1.03089,-0.163644,1.54139,
33890,-1.01879,-0.165044,1.55698,
33910,-1.00869,-0.163203,1.5739,
33930,-0.99958,-0.160903,1.59244,
33950,-0.992475,-0.15666,1.61202,
33970,-0.984933,-0.150286,1.63103,
33990,-0.981191,-0.142045,1.65045,
34010,-0.982344,-0.131727,1.67106,
34030,-0.985039,-0.118706,1.69041,
34050,-0.987751,-0.103632,1.70902,
34070,-0.992922,-0.0859333,1.72657,
34090,-0.999801,-0.0649436,1.74273,
34110,-1.00974,-0.0438423,1.75677,
34130,-1.02157,-0.0235146,1.76806,
34150,-1.03156,-0.00380848,1.77616,
34170,-1.04199,0.0146893,1.78185,
34190,-1.05539,0.030766,1.78518,
34210,-1.06685,0.0437635,1.78608,
34220,-1.07438,0.052437,1.78444,
34240,-1.08265,0.0586476,1.77879,
34260,-1.09138,0.0645305,1.77156,
34280,-1.09924,0.0690133,1.7629,
34300,-1.10416,0.0711277,1.75227,
34320,-1.11049,0.0721185,1.7388,
34340,-1.1187,0.0734513,1.72378,
34360,-1.12609,0.0746627,1.70742,
34380,-1.13031,0.0753616,1.68952,
34400,-1.13486,0.0763737,1.66997,
34420,-1.13831,0.0774938,1.65087,
34440,-1.14255,0.0764751,1.63134,
34460,-1.14523,0.0742403,1.61239,
34480,-1.14714,0.0708602,1.59265,
34500,-1.14658,0.0671853,1.57451,
34520,-1.14547,0.0609941,1.55817,
34540,-1.14504,0.0519781,1.54207,
34560,-1.1447,0.0413198,1.52766,
34580,-1.1425,0.0291893,1.5156,
34600,-1.13934,0.0159813,1.50526,
34620,-1.13578,-0.000192344,1.49696,
34640,-1.13131,-0.0171612,1.49041,
34660,-1.12559,-0.0344736,1.48543,
34680,-1.11863,-0.0523005,1.48252,
34700,-1.10912,-0.0698542,1.48102,
34720,-1.09789,-0.0866439,1.48035,
34740,-1.08579,-0.101888,1.48122,
34760,-1.07236,-0.115507,1.48424,
34780,-1.05916,-0.128143,1.48833,
34800,-1.04399,-0.139676,1.49464,
34820,-1.02731,-0.149829,1.50285,
34840,-1.01114,-0.15809,1.5135,
34860,-0.998548,-0.16569,1.52556,
34880,-0.988404,-0.171601,1.53971,
34900,-0.980174,-0.17648,1.55598,
34920,-0.9728,-0.179126,1.57381,
34940,-0.96718,-0.179311,1.59221,
34960,-0.965052,-0.176675,1.61118,
34980,-0.967076,-0.171988,1.63072,
35000,-0.972214,-0.164733,1.65116,
35020,-0.976481,-0.155266,1.67179,
35040,-0.979576,-0.144795,1.69129,
35060,-0.985912,-0.131731,1.71033,
35080,-0.990764,-0.117673,1.72844,
35100,-0.997334,-0.102837,1.74605,
35120,-1.00306,-0.0865449,1.76251,
35140,-1.00694,-0.0698769,1.77589,
35160,-1.00808,-0.0521439,1.78754,
35180,-1.00856,-0.0334439,1.79724,
35200,-1.01262,-0.0143379,1.80424,
35220,-1.01889,0.0049667,1.80888,
35240,-1.02539,0.0244948,1.81073,
35260,-1.03251,0.0432365,1.8108,
35280,-1.04278,0.0596104,1.8098,
35300,-1.05643,0.073419,1.80785,
35320,-1.07116,0.0846287,1.80506,
35340,-1.08163,0.0914157,1.80111,
35360,-1.09263,0.0959233,1.79451,
35380,-1.10664,0.099056,1.78573,
35400,-1.12151,0.0998746,1.77547,
35420,-1.13306,0.0989984,1.76379,
35440,-1.14252,0.0955302,1.74937,
35460,-1.15311,0.0906004,1.73337,
35480,-1.16998,0.0851607,1.71593,
35500,-1.18103,0.0783795,1.69896,
35520,-1.18528,0.0685322,1.67886,
35540,-1.18738,0.0599501,1.65701,
35560,-1.1909,0.0539196,1.63452,
35580,-1.19571,0.0471219,1.61125,
35600,-1.19704,0.0392367,1.58834,
35620,-1.19493,0.0317878,1.56499,
35640,-1.19348,0.0259753,1.54308,
35660,-1.19338,0.0191008,1.52285,
35680,-1.1883,0.011324,1.5039,
35700,-1.18165,0.0031139,1.48553,
35720,-1.17659,-0.00410555,1.47001,
35740,-1.17409,-0.0121216,1.45715,
35760,-1.17079,-0.023832,1.44588,
35780,-1.162,-0.0354415,1.43686,
35800,-1.15339,-0.0446835,1.42992,
35820,-1.14582,-0.0539285,1.42653,
35840,-1.13889,-0.0648304,1.4246,
35860,-1.12903,-0.0768474,1.42455,
35880,-1.11785,-0.0876803,1.42669,
35900,-1.10424,-0.0980256,1.43061,
35920,-1.09411,-0.108344,1.43553,
35940,-1.08314,-0.118843,1.44241,
35960,-1.06939,-0.13107,1.45112,
35980,-1.05676,-0.142325,1.46141,
36000,-1.04656,-0.152821,1.47364,
36020,-1.03985,-0.163087,1.48823,
36040,-1.03198,-0.174311,1.50401,
36060,-1.02314,-0.185293,1.52035,
36080,-1.01393,-0.195118,1.5383,
36100,-1.00727,-0.203951,1.55625,
36120,-1.00187,-0.211193,1.57495,
36130,-0.996836,-0.216939,1.594,
36150,-0.993435,-0.220576,1.61381,
36170,-0.991713,-0.222765,1.63465,
36190,-0.989425,-0.223012,1.65528,
36210,-0.988495,-0.220913,1.67532,
36230,-0.988846,-0.216518,1.69627,
36250,-0.989931,-0.210294,1.71675,
36270,-0.988834,-0.202232,1.73499,
36290,-0.986255,-0.192802,1.75147,
36310,-0.987249,-0.181896,1.76786,
36330,-0.993087,-0.169733,1.78353,
36350,-0.998302,-0.156682,1.7977,
36370,-1.00134,-0.143126,1.81002,
36390,-1.0038,-0.128542,1.81982,
36410,-1.00787,-0.112312,1.82686,
36430,-1.01521,-0.0956079,1.83135,
36450,-1.02187,-0.0803682,1.8346,
36470,-1.02837,-0.0666212,1.83581,
36490,-1.03616,-0.0527377,1.8346,
36510,-1.0444,-0.0392758,1.83127,
36530,-1.05299,-0.0271413,1.82597,
36550,-1.06033,-0.0156775,1.81911,
36570,-1.06844,-0.00560921,1.80986,
36590,-1.07795,0.00407086,1.79863,
36610,-1.08639,0.0132007,1.78577,
36630,-1.09582,0.0203155,1.772,
36650,-1.1055,0.0254872,1.75702,
36670,-1.11461,0.028425,1.74158,
36690,-1.12187,0.0303732,1.72541,
36710,-1.12885,0.0302011,1.70888,
36730,-1.13578,0.0283787,1.69243,
36750,-1.14181,0.0254917,1.67565,
36770,-1.14679,0.0212003,1.65836,
36790,-1.14891,0.016213,1.64023,
36810,-1.15065,0.0120913,1.62208,
36830,-1.15015,0.00861736,1.60436,
36850,-1.15052,0.00535252,1.58665,
36870,-1.15083,0.00161859,1.56963,
36890,-1.1489,-0.00144368,1.5536,
36910,-1.14506,-0.00453074,1.53856,
36930,-1.14267,-0.00753273,1.52554,
36950,-1.13814,-0.00990493,1.51313,
36970,-1.13231,-0.0123151,1.50166,
36990,-1.12528,-0.0140122,1.49111,
37010,-1.1177,-0.0143091,1.48199,
37030,-1.11236,-0.014615,1.47315,
37050,-1.10629,-0.013411,1.46644,
37070,-1.09737,-0.012319,1.46006,
37090,-1.09234,-0.0105876,1.45509,
37110,-1.08924,-0.00869592,1.45036,
37130,-1.08642,-0.00700322,1.4476,
37150,-1.08185,-0.00644521,1.44561,
37170,-1.07984,-0.00682157,1.44514,
37190,-1.08067,-0.00763334,1.44533,
37210,-1.08047,-0.010689,1.44629,
37230,-1.07842,-0.0142683,1.44753,
37250,-1.07371,-0.0175062,1.44752,
37270,-1.07182,-0.0188735,1.44735,
37290,-1.07044,-0.018667,1.44687,
37310,-1.07073,-0.0182601,1.44736,
37330,-1.06825,-0.0191644,1.44828,
37350,-1.0667,-0.019886,1.44881,
37370,-1.067,-0.0198307,1.44875,
37390,-1.06852,-0.019907,1.44902,
37410,-1.06932,-0.0211629,1.44947,
37430,-1.06891,-0.0228766,1.45009,
37450,-1.06703,-0.0243338,1.44977,
37470,-1.06607,-0.0254905,1.44957,
37490,-1.06446,-0.0275994,1.44904,
37510,-1.06458,-0.0292652,1.4486,
37530,-1.06391,-0.0306017,1.44829,
37550,-1.06255,-0.0319853,1.44838,
37570,-1.05559,-0.0354647,1.44602,
37590,-1.04808,-0.0379924,1.44377,
37610,-1.03965,-0.0399501,1.44071,
37630,-1.03107,-0.0428304,1.43779,
37650,-1.02274,-0.0452706,1.43422,
37670,-1.01146,-0.0462372,1.43055,
37690,-1.00042,-0.0462612,1.42659,
37710,-0.992898,-0.0446627,1.42221,
37730,-0.984408,-0.0411919,1.41983,
37750,-0.907167,-0.0220835,1.42627,
37770,-0.767747,-0.0396747,1.43555,
37790,-0.724962,-0.0408665,1.4259,
37810,-0.84569,-0.0418465,1.40425,
37830,-0.959153,-0.0426907,1.39083,
37850,-0.973112,-0.0404462,1.3885,
37870,-0.921163,-0.0392979,1.39177,
37890,-0.89406,-0.0370519,1.39111,
37910,-0.833511,-0.0221772,1.40826,
37930,-0.767463,-0.0364361,1.40546,
37950,-0.81331,-0.043364,1.39013,
37970,-0.910182,-0.0456198,1.37627,
37990,-0.956202,-0.0449936,1.37127,
38010,-0.937139,-0.0447463,1.3723,
38030,-0.910821,-0.0414352,1.37356,
38050,-0.913504,-0.0384251,1.37089,
38070,-0.925272,-0.0376294,1.36845,
38090,-0.921261,-0.0371812,1.3681,
38110,-0.911489,-0.0348711,1.36844,
38130,-0.911106,-0.0320707,1.36758,
38150,-0.920081,-0.0307718,1.36611,
38170,-0.929021,-0.0288636,1.36487,
38190,-0.931808,-0.0245642,1.36487,
38210,-0.931222,-0.0202437,1.36473,
38230,-0.93326,-0.01572,1.36415,
38250,-0.93112,-0.0120019,1.36418,
38270,-0.923574,-0.00889346,1.36391,
38290,-0.91756,-0.00644328,1.36305,
38310,-0.915494,-0.00470279,1.36188,
38330,-0.916795,-0.00418262,1.3618,
38350,-0.917102,-0.00409592,1.36187,
38370,-0.916413,-0.00414239,1.3618,
38390,-0.916617,-0.00303594,1.36238,
38410,-0.920121,-0.0023244,1.36292,
38430,-0.922732,-0.00275305,1.36418,
38450,-0.922151,-0.00366173,1.3644,
38470,-0.922279,-0.00255102,1.3639,
38490,-0.924875,0.000562698,1.36357,
38510,-0.927382,0.00270358,1.36405,
38530,-0.926963,0.00360397,1.36483,
38550,-0.925314,0.0045888,1.36491,
38570,-0.92455,0.00575105,1.36491,
38590,-0.924563,0.00702947,1.36533,
38610,-0.924291,0.00775095,1.3661,
38630,-0.922549,0.00852002,1.36642,
