Timestamp, Electrode 1, Electrode 2, Electrode 3, Electrode 4, Electrode 5, Electrode 6, Electrode 7, Electrode 8, Marker
0,3,-6,7,16,8,6,10,2,0
5,-1,-2,3,0,-3,-5,-3,-2,0
10,-8,2,-9,-11,-12,-2,-5,-4,0
15,-3,2,3,-5,-5,-3,-2,-2,0
20,5,-5,5,12,16,5,1,0,0
25,1,0,0,6,5,2,-5,4,0
30,-1,7,-2,-11,-10,-4,-3,-5,0
35,0,-1,-5,-11,-16,1,-4,0,0
40,1,-3,2,9,0,2,2,4,0
45,-3,-5,2,0,-4,-2,7,1,0
50,1,2,-7,-7,0,-6,-3,-10,0
55,-4,1,-8,-2,-4,2,0,-5,0
60,0,-2,5,1,3,-2,-4,14,0
65,-5,1,2,3,0,0,0,2,0
70,-3,-4,-3,-8,-4,0,-5,-7,0
75,1,-3,-2,-3,3,-3,0,-1,0
80,5,-10,0,3,3,2,-1,2,0
85,3,-8,1,5,3,3,4,3,0
90,-9,4,-5,-8,-10,-6,-2,-1,0
95,-1,-3,-2,-2,6,2,-3,-2,0
100,0,-2,4,1,-4,-1,-1,4,0
105,5,-3,0,4,8,0,0,-1,0
110,-5,-4,-3,-4,-1,7,-5,-5,0
115,-7,0,2,0,0,0,1,2,0
120,5,-7,7,16,2,1,1,15,0
125,-2,-2,2,4,0,-3,-1,1,0
130,-7,4,-6,-15,-13,-3,-2,-7,0
135,-4,-3,1,-3,1,2,2,-1,0
140,7,0,6,10,2,-3,3,4,0
145,-1,-2,3,0,-1,0,-1,1,0
150,-7,-2,-9,-11,-6,0,-1,-3,0
155,-4,-6,-5,-11,-12,-1,-4,-3,0
160,3,-2,3,8,4,-2,4,5,0
165,5,-4,-3,5,0,-8,-1,0,0
170,-9,-1,-11,-13,-6,7,1,-7,0
175,-2,2,-3,-5,-2,3,-1,-2,0
180,6,-2,6,6,2,-8,-2,6,0
185,1,-5,-1,-4,-7,-2,-4,-1,0
190,-5,-4,-7,-5,-1,8,1,-8,0
195,0,-3,1,-3,-3,4,0,2,0
200,2,0,-1,6,0,-14,-3,2,0
205,1,4,1,-1,-2,-4,0,-1,0
210,-6,-7,-5,-4,-3,2,-10,-10,0
215,-1,2,-5,-5,-1,-2,-10,-14,0
220,0,3,-2,-24,-2,-65,19,-9,0
225,-9,7,-19,8,16,59,-20,25,0
230,1,10,10,18,-1,50,19,-21,0
235,10,77,16,61,1,-22,-41,26,0
240,-10,43,-23,-2,-6,7,17,19,0
245,7,-97,25,-48,1,0,-2,-1,0
250,-23,-51,-3,-106,6,-28,5,-15,0
255,-3,-83,23,48,-7,-26,-6,-17,0
260,17,-21,10,85,-11,-3,-2,10,0
265,19,52,-12,29,17,-14,-12,3,0
270,3,45,-15,-40,1,23,-38,1,0
275,3,16,1,-39,1,13,11,-10,0
280,3,1,14,-6,-10,21,22,-6,0
285,-16,-14,-5,-18,-16,-14,27,-9,0
290,-13,-23,-4,10,-30,-47,-22,-8,0
295,-6,17,-38,6,-19,-23,1,1,0
300,14,25,-17,61,71,39,-2,7,0
305,0,33,23,-63,65,-27,-4,1,0
310,-21,-9,-6,-97,-82,-101,-14,-21,0
315,-11,-42,-2,-68,-1,-3,9,0,0
320,11,19,21,33,62,113,1,10,0
325,-1,11,6,28,89,0,5,-14,0
330,-14,-31,-7,24,49,-87,-29,-10,0
335,-7,-27,8,-33,-39,-63,-6,2,0
340,17,-41,5,-104,-50,61,36,12,0
345,-4,51,-26,-48,-56,-17,24,-8,0
350,-14,34,0,103,-23,-64,3,-4,0
355,9,17,-21,86,-105,82,17,-5,0
360,13,-23,19,66,46,75,4,2,0
365,-3,-57,-13,47,32,63,6,6,0
370,-14,6,-45,32,11,-23,-7,1,0
375,-7,28,-13,-9,127,-94,16,3,0
380,5,12,32,-60,87,-124,-16,16,0
385,-4,-26,28,-28,-6,-96,-16,-1,0
390,-5,-34,24,-5,-59,-45,-12,-6,0
395,6,26,-9,-2,-42,-73,-23,-4,0
400,7,31,-21,-128,36,-118,-8,-9,0
405,-7,-24,-15,-97,103,-128,-3,-14,0
410,-10,-34,-4,-21,115,-75,17,-5,0
415,-4,-16,19,16,113,-103,21,7,0
420,8,21,14,73,11,-72,-3,9,0
425,-2,30,-1,91,-65,77,-6,6,0
430,4,-10,-4,76,-104,127,15,10,0
435,1,-25,3,48,-66,127,18,0,0
440,-5,9,9,40,-19,85,1,-7,0
445,0,8,5,57,-89,122,10,-9,0
450,3,-13,-5,54,-73,127,9,0,0
455,4,19,-24,18,-61,88,-33,-2,0
460,-2,20,-17,2,-11,51,-42,-3,0
465,-7,6,-19,32,-87,61,-16,-3,0
470,5,-36,7,31,-59,63,-11,2,0
475,2,-18,13,-7,48,73,-4,-1,0
480,-10,-10,2,-2,45,7,-18,-6,0
485,2,-8,-3,23,-61,10,-12,-6,0
490,5,0,2,11,-50,83,2,5,0
495,4,1,10,-9,25,-14,3,-2,0
500,-5,-3,-3,2,44,-23,5,-6,0
505,-1,22,-8,14,12,1,10,-7,0
510,2,22,3,1,-44,83,30,11,0
515,-1,12,12,-6,53,-51,23,4,0
520,-11,15,-11,2,46,-72,6,-8,0
525,-5,3,-3,5,-16,1,8,-4,0
530,7,15,-2,2,-54,92,-4,4,0
535,0,-10,2,-2,18,11,-5,3,0
540,-9,-17,-4,-3,29,-98,-11,-11,0
545,-7,-14,-1,3,-25,46,-10,-4,0
550,5,-6,-2,5,-14,70,-4,-3,0
555,0,-2,3,-3,-17,27,-4,-3,0
560,-3,-10,-1,-5,6,-73,-9,-6,0
565,1,-16,0,3,-65,72,-12,3,0
570,11,1,13,3,-19,55,0,12,0
575,0,0,1,-4,64,29,0,-1,0
580,-13,-3,-3,-3,13,-52,2,-2,0
585,-2,0,-3,3,47,36,2,1,0
590,3,4,1,1,19,47,6,3,0
595,-1,1,-1,-3,12,-12,3,2,0
600,-9,-3,-11,-1,-47,12,2,-6,0
605,4,3,1,2,-66,-128,-4,-4,0
610,0,5,3,0,-23,-13,0,0,0
615,2,-2,-2,-2,-128,-27,3,3,0
620,-3,-5,-8,0,29,-19,3,-2,0
625,1,0,-1,0,-70,-68,1,0,0
630,6,5,2,-1,48,-122,8,1,0
635,-3,-6,-4,-1,18,-17,5,-2,0
640,-4,-9,-6,-1,-9,76,0,0,0
645,4,1,3,0,52,3,-1,0,0
650,9,8,6,0,-25,-67,2,-1,0
655,-2,-1,2,-1,12,18,-2,0,0
660,-1,0,-1,45,-57,36,1,-7,0
665,-5,2,1,6,53,21,6,1,0
670,8,6,10,-31,43,-46,-4,1,0
675,3,-1,-2,71,19,-20,-2,3,0
680,-3,-15,0,43,-49,41,-5,-4,0
685,-3,-17,1,-70,-79,-3,-3,-5,0
690,-1,0,4,-53,8,-65,-8,2,0
695,-2,1,1,19,-90,3,-13,-3,0
700,-2,3,-4,18,-68,36,-8,-1,0
705,-1,9,-13,-17,-24,0,2,-1,0
710,3,4,-11,-41,18,-42,2,0,0
715,-1,1,2,10,22,15,5,3,0
720,-3,-11,1,39,-35,25,-2,-1,0
725,-8,-4,7,31,47,-24,5,0,0
730,-4,-3,-3,-95,-51,-21,41,2,0
735,1,-1,0,33,38,5,-10,-4,0
740,2,2,-1,84,28,3,-20,-2,0
745,2,0,14,-71,-40,-13,-13,-2,0
750,-7,-19,5,-47,37,-15,-2,-4,0
755,-1,-9,-5,-74,-93,3,1,-3,0
760,-1,2,-9,34,-119,11,5,2,0
765,2,10,-14,-71,-24,4,5,3,0
770,6,8,-5,-41,13,-13,-4,2,0
775,1,5,-1,-13,-34,-8,4,5,0
780,-7,-3,2,49,-70,13,3,-2,0
785,-1,-3,0,-47,-7,1,4,-7,0
790,3,-5,0,-60,29,-12,-8,-2,0
795,-1,-17,-4,7,7,-6,-15,6,0
800,-1,13,-10,32,-50,6,-11,0,0
805,0,21,-1,-55,-1,6,3,-6,0
810,3,20,3,-45,43,23,36,3,0
815,0,-2,7,-73,-7,2,-7,-1,0
820,-2,-28,-5,-128,-42,-20,-26,-2,0
825,-9,-36,-7,-30,1,-1,-11,3,0
830,-4,-2,1,8,35,20,-13,-2,0
835,2,-4,6,-21,-5,12,2,-1,0
840,-3,1,4,-69,-38,-33,-8,-6,0
845,-2,17,-5,20,18,43,4,3,0
850,-7,11,0,57,16,91,-6,2,0
855,0,22,-5,19,-5,-9,31,0,0
860,1,11,4,-64,-14,-75,19,-1,0
865,1,-2,-4,40,9,57,13,-1,0
870,-3,-5,-3,60,10,66,-19,-11,0
875,-2,-6,-1,-27,-3,-63,-15,-9,0
880,2,-2,4,-71,-11,-75,7,2,0
885,-6,3,2,26,6,42,-6,-7,0
890,6,4,1,44,5,92,-11,1,0
895,-5,0,0,-35,-1,-45,5,3,0
900,-2,-8,0,-42,-14,-77,12,-3,0
905,-11,-3,1,20,-5,39,-1,-2,0
910,-7,-11,-5,32,13,68,-14,-1,0
915,4,3,4,6,-1,-50,5,5,0
920,7,-2,-1,-6,-8,-63,9,5,0
925,-4,-8,-7,23,12,38,-10,-3,0
930,0,-15,-4,23,10,40,-8,3,0
935,4,0,12,-24,-10,-50,-3,2,0
940,-2,5,-7,-5,-15,-26,-1,6,0
945,-1,-3,2,-2,8,35,-14,-6,0
950,-3,-1,7,-11,3,19,-6,-5,0
955,0,2,-5,-7,-4,-30,4,0,0
960,-1,5,0,-30,-2,-25,5,-9,0
965,-2,-7,-2,-3,0,-86,8,-8,0
970,-6,8,-2,4,4,-14,1,-9,0
975,-1,2,2,-39,-6,-38,2,0,0
980,-2,1,5,-46,0,4,6,4,0
985,-3,-4,1,-2,-4,-85,0,1,0
990,-3,-3,-1,9,1,7,2,-1,0
995,-4,14,-3,17,3,-4,7,4,0
1000,-2,2,3,4,98,70,-1,0,0
1005,-2,-17,1,18,115,-4,-7,-3,0
1010,4,-8,-7,34,127,-60,-14,2,0
1015,2,-1,-10,25,-83,109,-13,5,0
1020,0,3,-8,8,-128,111,-9,4,0
1025,-1,-7,1,-1,-128,20,-8,3,0
1030,-5,-4,1,0,-128,-55,-1,0,0
1035,-1,-6,0,-3,71,58,2,-4,0
1040,-4,-8,1,-6,50,84,8,-12,0
1045,3,-5,5,-14,81,12,1,1,0
1050,2,6,1,-12,23,-77,1,-1,0
1055,-1,15,-6,-6,120,44,-5,-5,0
1060,1,9,-3,-15,114,64,-1,-5,0
1065,-6,7,-8,-11,126,-14,-7,0,0
1070,5,6,1,14,66,-59,0,2,0
1075,1,8,2,7,109,33,-1,-4,0
1080,-6,0,0,2,127,39,-3,-2,0
1085,-7,-5,-4,8,55,-19,-8,-3,0
1090,0,-4,3,9,120,-11,-3,3,0
1095,-4,-1,-4,5,110,127,0,-1,0
1100,-3,14,-9,-4,106,127,-6,-1,0
1105,2,9,-3,-10,-5,127,0,2,0
1110,4,4,-4,-16,-99,49,-2,1,0
1115,-2,-8,5,-5,-128,-13,3,-1,0
1120,-3,-14,10,-1,-128,-58,10,-5,0
1125,2,-6,5,10,-127,-108,9,-6,0
1130,3,-2,9,6,-98,-115,6,1,0
1135,1,-2,3,1,-112,-78,1,-1,0
1140,-3,-4,-2,-3,-118,-59,-4,-1,0
1145,0,0,1,-7,-78,-68,-2,3,0
1150,4,1,-4,-4,-56,-62,4,-2,0
1155,0,-3,-4,-11,-51,-31,-6,1,0
1160,-5,-6,-2,-4,-63,-25,-11,1,0
1165,-4,-12,-5,-6,-33,-32,2,1,0
1170,1,-1,-5,8,-7,-34,2,-2,0
1175,-2,0,-3,6,-79,-14,-3,2,0
1180,-5,2,-2,-11,-114,-4,2,-5,0
1185,1,-2,-3,-2,-123,-15,-3,5,0
1190,-2,4,3,1,-95,-19,3,1,0
1195,2,5,-2,-3,15,-3,4,2,0
1200,-3,-7,8,0,81,-5,-5,-6,0
1205,2,-2,-3,-5,98,-1,-2,-3,0
1210,0,-6,0,-1,0,-3,-3,-2,0
1215,-1,2,6,-4,96,7,-6,-4,0
1220,-1,0,-6,-11,96,1,-11,-2,0
1225,3,-3,0,-13,48,-2,-5,4,0
1230,-3,-5,-8,10,-60,-7,3,2,0
1235,-2,6,-2,9,23,-3,5,-3,0
1240,-2,-1,3,-5,89,-1,5,-7,0
1245,-6,-11,-5,-1,-43,-6,1,-3,0
1250,-1,6,-4,-17,-48,-14,-4,0,0
1255,-3,-6,-1,0,4,-6,-4,5,0
1260,0,0,-3,9,31,-5,3,3,0
1265,-3,1,-2,3,-66,-5,2,-2,0
1270,-1,-9,1,3,-67,-4,-1,6,0
1275,1,1,1,15,-58,-2,2,-3,0
1280,-4,5,-12,-4,-60,6,-5,2,0
1285,4,0,-6,8,-82,-2,1,-6,0
1290,-3,-5,-5,-5,-61,2,-5,5,0
1295,0,-7,-3,-14,46,1,-6,0,0
1300,-1,-11,2,-5,30,5,-7,-2,0
1305,-5,-3,-5,3,-74,1,-1,-4,0
1310,1,-1,-1,0,-70,2,2,-1,0
1315,4,5,2,11,-11,3,-3,2,0
1320,0,-2,-3,-4,19,4,-4,0,0
1325,-4,1,3,0,4,-3,-3,3,0
1330,-1,4,-1,2,127,-9,-1,-4,0
1335,-4,2,5,-5,65,-5,0,-1,0
1340,-1,-7,0,3,38,-6,1,-6,0
1345,3,-3,-1,-2,82,9,-1,1,0
1350,-1,-2,6,-15,49,5,-4,6,0
1355,-2,0,-1,-11,-39,-8,-6,-5,0
1360,-2,2,-6,0,-81,-6,-1,-2,0
1365,0,8,-5,-1,31,5,9,2,0
1370,0,3,-2,5,29,3,6,-2,0
1375,4,2,-1,3,-16,-5,4,0,0
1380,-7,-9,-2,4,-53,-9,-2,-2,0
1385,-2,-1,2,5,24,-2,-1,-1,0
1390,2,-4,4,5,51,4,-1,1,0
1395,-6,-19,-9,-12,-38,-3,-5,-3,0
1400,-1,-8,-3,-13,-57,-1,-11,-9,0
1405,1,-1,1,-12,21,-2,-2,0,0
1410,-1,13,-1,-7,26,0,-1,5,0
1415,-3,1,4,4,-23,-5,-7,-5,0
1420,-2,-5,-2,4,-31,-3,-2,-3,0
1425,-3,7,-2,4,24,10,-4,-5,0
1430,1,1,-4,3,14,2,5,1,0
1435,-7,1,-9,-5,-19,0,-4,-3,0
1440,-5,2,-4,-2,-17,2,-6,-4,0
1445,1,-1,1,3,9,-3,0,4,0
1450,2,3,-1,0,12,-4,5,4,0
1455,-1,2,0,-1,-12,-3,-5,-9,0
1460,-2,3,-5,2,-15,2,3,-1,0
1465,-1,4,-4,-3,11,-1,-2,1,0
1470,3,5,-1,-5,9,-3,-2,-2,0
1475,-2,-8,-3,-8,-2,-2,6,1,0
1480,1,-7,4,-4,-10,0,0,-5,0
1485,3,-4,3,3,4,-7,0,2,0
1490,-2,-6,1,2,10,-5,4,-2,0
1495,1,-3,2,-1,-7,2,1,-8,0
1500,-3,-6,-6,-2,-11,2,1,-3,0
1505,2,-1,3,3,0,0,-1,-2,0
1510,-3,-1,3,-6,-3,-2,-3,-4,0
1515,5,-4,2,1,-1,2,-4,-3,0
1520,4,1,1,-3,-12,-1,-1,2,0
1525,-1,-1,6,-2,10,-1,1,-3,0
1530,-5,2,1,-3,-1,-3,-4,0,0
1535,-4,1,0,-4,-5,0,2,-6,0
1540,-2,2,-1,1,-5,2,3,3,0
1545,-2,4,2,-2,2,-7,3,0,0
1550,3,2,2,9,0,1,0,-3,0
1555,1,3,-1,1,-9,0,-1,0,0
1560,-3,1,-4,2,-7,5,-3,2,0
1565,3,2,-3,-2,2,4,0,5,0
1570,-2,2,-3,-8,6,0,0,-3,0
1575,-1,-6,-3,-6,-2,1,-5,-1,0
1580,-1,-3,-1,-1,-5,-6,0,-3,0
1585,-1,-4,-2,4,-1,-2,-2,-1,0
1590,1,3,3,4,5,-2,7,5,0
1595,-6,-3,-5,3,1,1,4,0,0
1600,2,-4,-6,-7,-7,0,-1,-3,0
1605,-2,-4,-1,1,1,-1,-4,-2,0
1610,0,1,3,7,-6,-6,-6,-1,0
1615,0,8,-4,3,0,-2,-3,3,0
1620,1,7,3,1,0,-1,0,-10,0
1625,-6,0,-3,-6,0,1,0,0,0
1630,-2,-9,-5,-4,-3,-2,-3,-4,0
1635,-2,-6,-7,-11,1,0,-11,1,0
1640,-6,-4,-4,0,2,-2,-1,1,0
1645,7,0,4,-2,1,-5,-3,-5,0
1650,0,4,-1,0,-2,6,2,2,0
1655,-5,3,0,1,-3,-2,0,-1,0
1660,-6,-2,0,2,4,-1,2,-1,0
1665,-5,-2,-5,7,6,-5,5,-5,0
1670,0,8,1,5,0,0,0,-1,0
1675,1,2,-7,0,-3,-5,-4,-5,0
1680,-7,-2,0,-8,-1,6,-3,2,0
1685,0,-9,-1,-9,-4,1,-6,0,0
1690,-1,-10,-3,-10,-1,-5,-9,-3,0
1695,1,-13,0,1,-2,-5,-3,-3,0
1700,0,-7,-1,-2,3,-8,0,-3,0
1705,2,5,3,0,0,0,4,3,0
1710,-3,4,0,-2,1,-2,8,1,0
1715,-6,-2,4,-3,3,0,2,-6,0
1720,-1,-5,3,4,4,-1,-2,-3,0
1725,0,5,2,10,-1,-1,1,9,0
1730,-1,-12,0,1,-1,-4,-1,0,0
1735,-8,-1,0,3,1,2,-4,-1,0
1740,0,-14,-9,-6,-1,2,-2,-4,0
1745,5,-2,-4,-5,-2,2,0,-3,0
1750,1,3,0,-3,0,6,1,0,0
1755,-6,-3,-3,-4,1,-3,-7,-11,0
1760,-7,-6,-7,-1,-2,-5,-4,-1,0
1765,6,7,3,-4,-5,1,1,8,0
1770,0,1,0,-2,-1,-5,-1,-1,0
1775,-4,2,-3,0,1,-2,2,-7,0
1780,-5,1,1,4,-6,-2,0,-1,0
1785,5,7,-1,-1,-2,-5,2,4,0
1790,5,6,2,1,-3,2,-3,7,0
1795,-3,-2,-4,-2,-2,-2,-1,-11,0
1800,-4,-2,-2,3,1,1,-17,-16,0
1805,2,14,-10,-1,-3,5,-6,1,0
1810,1,-2,-5,3,3,-1,-9,-11,0
1815,-6,13,-1,-6,-6,-4,6,-12,0
1820,-4,-24,6,-4,-5,-7,5,-3,0
1825,0,-7,-3,6,2,0,5,3,0
1830,1,7,8,-1,-6,3,1,4,0
1835,-2,-8,3,12,2,1,7,11,0
1840,-3,18,13,9,-1,3,-2,12,0
1845,5,-6,0,-13,0,-1,-6,0,0
1850,7,-15,0,4,1,-6,10,-7,0
1855,-1,-5,8,1,0,1,-4,2,0
1860,-3,-21,3,-18,0,0,-3,0,0
1865,-7,-3,-4,7,1,-2,-13,2,0
1870,-4,21,-10,-6,-4,-3,0,-10,0
1875,4,-1,6,1,-3,-5,4,-5,0
1880,-6,5,-9,2,7,3,4,3,0
1885,0,-9,3,-2,-4,-1,3,-2,0
1890,-2,4,1,1,2,-2,3,0,0
1895,4,-3,-3,0,-2,0,0,-1,0
1900,-2,-3,-6,-1,-1,3,-1,-1,0
1905,-11,-7,-4,-9,-9,0,4,1,0
1910,5,9,2,4,2,0,2,5,0
1915,0,-2,-2,-4,-1,0,-7,2,0
1920,-2,-4,-13,1,1,1,-2,-4,0
1925,-4,1,0,4,2,4,0,-4,0
1930,-1,0,5,-2,-1,1,-8,5,0
1935,-2,-6,-5,-6,-1,-2,-2,-5,0
1940,4,2,-4,-3,-1,-2,4,-6,0
1945,-4,-2,5,-2,2,-1,0,1,0
1950,1,-7,-2,-1,-2,-6,-4,3,0
1955,2,-3,-1,-1,4,0,-4,2,0
1960,-4,-2,-2,-6,-6,-3,3,1,0
1965,0,4,-4,-2,2,-3,0,-3,0
1970,-3,-4,1,-2,-5,-9,3,0,0
1975,0,0,-3,-1,2,-6,4,3,0
1980,-5,0,-2,1,3,3,0,-2,0
1985,-4,-7,1,-2,11,-3,-1,-9,0
1990,0,-1,-6,-2,-4,2,-4,-1,0
1995,4,1,-7,-5,2,2,-1,-4,0
2000,4,4,0,1,1,-2,-3,3,0
2005,-5,-4,-1,-7,-6,-4,-2,-12,0
2010,-3,-8,-5,-3,4,-1,-3,-4,0
2015,0,-1,-1,0,-2,4,2,3,0
2020,-1,0,-1,-3,-1,3,0,-2,0
2025,2,-2,2,-1,-6,-4,4,0,0
2030,1,2,5,0,-2,2,-5,-4,0
2035,-5,3,-2,-3,-7,-3,-4,1,0
2040,7,6,5,2,2,-7,-1,-3,0
2045,1,2,3,1,-5,-4,5,1,0
2050,-3,-6,-1,-4,3,6,6,0,0
2055,-3,0,3,-6,3,-2,-9,0,0
2060,-3,3,-2,-2,-6,-2,-8,-1,0
2065,-2,4,-1,-3,-1,-2,3,0,0
2070,-2,-5,-4,0,-4,0,-1,-4,0
2075,1,-6,-4,3,1,2,1,2,0
2080,-1,1,2,5,-3,1,1,-1,0
2085,-1,1,-5,6,3,2,2,3,0
2090,-4,-2,-5,-3,1,-3,-4,3,0
2095,2,2,-2,0,-1,-5,-1,2,0
2100,-2,-1,2,-3,-6,-1,-2,-2,0
2105,-5,-8,-3,-1,-1,3,0,-4,0
2110,-2,-2,-3,-5,-4,-5,-3,2,0
2115,-2,-6,-3,-8,0,1,1,-2,0
2120,4,0,-6,4,1,-2,0,5,0
2125,-5,-5,-3,1,1,-5,4,-2,0
2130,-5,2,0,0,1,0,-1,-3,0
2135,-3,5,1,1,1,-3,-1,-2,0
2140,-4,-3,-3,3,1,-1,1,-8,0
2145,-7,2,-5,-1,0,3,-3,2,0
2150,-2,7,0,4,-4,3,-3,-1,0
2155,6,8,-8,5,-11,-2,-2,-1,0
2160,0,0,-2,3,1,6,2,-2,0
2165,-2,1,1,5,-5,4,-1,-1,0
2170,-1,-1,0,-30,-8,-5,-6,0,0
2175,0,-14,11,-56,2,-16,-10,-2,0
2180,-1,4,5,-1,2,-14,-6,6,0
2185,2,-6,6,0,-1,7,6,-6,0
2190,3,-2,5,23,3,-2,7,2,0
2195,-6,-5,-1,20,-4,2,-6,6,0
2200,-4,-14,-13,-21,-1,-2,-2,-3,0
2205,-2,9,-11,1,-2,-7,-8,0,0
2210,-4,7,1,1,-1,3,-1,-3,0
2215,-6,-4,3,1,-1,3,6,-5,0
2220,2,5,-4,-5,-6,4,-5,-6,0
2225,-1,-2,-1,-2,-6,-1,-4,-4,0
2230,-4,-6,-5,-8,1,1,1,-2,0
2235,-2,4,2,5,1,1,-4,-2,0
2240,-5,-5,2,-2,-6,1,-5,1,0
2245,-5,-7,1,-11,-5,1,0,-1,0
2250,0,0,-7,5,-2,2,-5,-3,0
2255,5,-2,-1,14,3,9,-3,4,0
2260,-1,2,2,-3,-5,-5,-8,-4,0
2265,1,3,-1,-16,-6,-9,-1,-5,0
2270,-4,-6,-6,-6,-2,-8,-1,1,0
2275,1,-2,-6,6,-2,-3,0,-4,0
2280,5,0,3,3,2,3,6,-2,0
2285,4,-4,5,-2,4,-1,-1,3,0
2290,-5,-9,-5,0,0,-3,-5,-3,0
2295,-1,4,-3,-3,-9,9,-4,2,0
2300,-2,23,5,-19,2,13,5,3,0
2305,1,-8,6,5,1,6,0,-3,0
2310,2,-10,7,-4,4,-1,6,-5,0
2315,-2,-2,3,5,-6,-9,2,-3,0
2320,-6,-16,-5,15,-2,-3,9,0,0
2325,-3,12,-2,3,7,-4,1,-4,0
2330,2,7,-7,16,-8,-2,-3,-1,0
2335,-1,1,-6,1,7,-2,-3,-3,0
2340,-5,2,-2,-18,-2,-6,7,-5,0
2345,-5,-4,-5,-5,4,0,8,-5,0
2350,4,-3,8,1,1,-5,5,-12,0
2355,4,7,-2,-10,-4,-2,6,-3,0
2360,-1,6,-7,-5,-3,-4,1,3,0
2365,-3,-1,-3,-2,-3,-3,4,-1,0
2370,-4,-1,-4,1,-7,0,-15,8,0
2375,0,-4,-10,7,-3,1,2,-3,0
2380,1,-6,2,-2,-3,-8,-12,-3,0
2385,-4,-12,-8,0,1,0,-13,1,0
2390,1,13,2,3,-3,0,-1,0,0
2395,1,7,4,-4,-6,-1,-4,2,0
2400,-1,2,-4,0,2,7,-2,0,0
2405,-3,1,-2,-2,-2,-3,0,-3,0
2410,0,1,1,-7,2,-3,-5,-3,0
2415,0,-6,-7,-2,2,1,5,-7,0
2420,5,0,1,12,-3,-1,-3,1,0
2425,0,-5,1,-6,-3,3,-5,-1,0
2430,4,-6,0,-5,6,-3,0,3,0
2435,-5,0,-3,-2,-3,-2,-3,1,0
2440,-1,-4,-3,4,3,5,-2,1,0
2445,-3,-8,-1,3,-3,-5,-7,3,0
2450,3,-2,1,-7,-6,-2,-1,4,0
2455,2,6,4,2,-5,-5,-3,6,0
2460,-2,-8,0,2,-2,-3,9,-2,0
2465,-2,-2,-6,5,4,1,-5,-2,0
2470,-2,-2,-3,-2,6,-2,4,0,0
2475,3,-2,-2,-5,-2,5,2,-2,0
2480,4,0,4,4,-1,-1,-4,-3,0
2485,-3,4,0,-2,-2,-4,0,-1,0
2490,-8,1,-5,-4,-4,-4,2,-2,0
2495,1,5,0,-3,1,-5,-2,1,0
2500,-2,1,2,1,0,-2,-1,-2,0
2505,-4,0,-6,-2,-2,-2,-6,-1,0
2510,-1,-1,-3,-4,-5,1,-1,0,0
2515,-5,-2,-1,-2,1,-2,1,3,0
2520,1,4,-5,-2,-5,-7,-6,2,0
2525,0,-1,4,-2,-3,-4,1,1,0
2530,0,-4,-2,2,-1,1,1,1,0
2535,-2,-4,1,-2,-5,0,-2,-7,0
2540,-2,0,-4,4,0,-2,-6,1,0
2545,3,1,0,-2,-5,-2,-5,-6,0
2550,1,-3,-4,2,5,-3,-2,-4,0
2555,1,-10,-3,0,-1,-2,-2,-4,0
2560,3,1,-1,-1,-2,2,1,-1,0
2565,-2,-5,-4,1,5,7,-2,5,0
2570,1,-3,2,-2,4,-3,-3,-6,0
2575,0,0,1,1,3,-2,0,6,0
2580,-2,-6,-2,0,0,-3,-3,2,0
2585,-1,5,4,3,1,-5,-2,-1,0
2590,0,-2,-3,-3,-6,1,4,-4,0
2595,-10,-4,-3,0,3,2,-7,-4,0
2600,-2,-9,2,-3,3,-2,-1,4,0
2605,-3,2,4,3,-4,-1,-1,2,0
2610,0,-3,6,-3,3,0,-3,0,0
2615,1,0,8,-1,-3,1,1,-1,0
2620,-1,-5,0,-3,-5,-3,1,1,0
2625,0,0,4,-2,-2,-2,6,1,0
2630,-1,-1,-3,1,-6,3,-1,2,0
2635,1,0,-3,1,1,-4,-1,2,0
2640,-3,-1,-3,-1,-4,-4,-1,0,0
2645,-1,2,2,1,1,-3,3,2,0
2650,-4,3,-3,3,4,2,1,1,0
2655,-1,-4,-2,-1,0,2,3,1,0
2660,-3,-1,-5,-3,4,-1,-2,0,0
2665,1,-4,-5,-6,-10,-1,-1,-2,0
2670,0,2,-3,-6,-3,-1,1,-6,0
2675,-1,-1,-2,-1,-3,0,-4,-5,0
2680,-1,-3,-2,1,-4,-1,2,-6,0
2685,3,4,-1,1,0,1,-1,-2,0
2690,-2,-1,-1,-1,-1,1,-5,3,0
2695,1,-3,-8,0,3,1,-3,-1,0
2700,0,2,-1,1,5,-1,0,0,0
2705,3,-3,-3,-2,3,-1,1,-6,0
2710,-2,4,0,-5,-4,-6,-4,-5,0
2715,-4,-5,0,-5,-10,-3,-2,-1,0
2720,0,-4,1,-4,-6,1,-2,3,0
2725,-4,0,0,-7,2,-4,2,-4,0
2730,1,0,4,1,-2,0,0,0,0
2735,-2,2,1,0,-3,1,1,-1,0
2740,-4,-2,-6,-6,-4,0,-6,-3,0
2745,-1,-3,1,5,1,-3,-2,3,0
2750,-4,-1,0,-1,-2,-2,3,0,0
2755,2,0,3,-2,-5,-1,2,-1,0
2760,-4,-2,-2,-8,-4,0,3,-4,0
2765,1,-1,-4,-1,1,0,-4,1,0
2770,-1,-3,-5,-6,0,-1,-3,0,0
2775,0,0,1,0,-3,-2,-2,2,0
2780,-3,2,-2,-1,2,2,-2,-3,0
2785,-4,-2,2,-3,-8,-2,0,-3,0
2790,2,-2,0,-2,-5,-4,1,6,0
2795,4,-1,3,3,3,-3,1,-1,0
2800,-2,1,5,3,-1,-2,3,1,0
2805,1,-2,-1,-6,-7,-3,-3,-1,0
2810,-3,-1,0,0,-6,3,0,-4,0
2815,0,3,-1,4,0,-1,-2,1,0
2820,-1,-4,-1,-2,-2,-2,1,-3,0
2825,-3,2,3,6,2,2,1,3,0
2830,-1,1,5,4,5,0,-5,1,0
2835,4,-2,-1,-1,-1,0,-4,1,0
2840,-1,-2,-3,0,-1,-3,-4,-1,0
2845,4,-3,-2,1,0,3,-1,1,0
2850,-3,4,2,-1,0,-2,-4,-1,0
2855,-6,-3,-3,-1,2,-2,-6,-3,0
2860,1,-1,2,2,5,4,0,1,0
2865,-5,0,-4,-7,-6,1,-1,0,0
2870,-1,2,0,-4,1,-5,-6,1,0
2875,0,0,-2,-4,-5,-4,-4,0,0
2880,-2,-7,-2,0,-5,-1,3,0,0
2885,-3,0,-2,-1,-3,4,1,-5,0
2890,-4,-1,2,6,-1,-4,2,-4,0
2895,-3,-3,3,-5,-1,-1,4,-3,0
2900,-2,4,-1,-4,-2,-1,-1,2,0
2905,1,0,-7,-2,-3,-1,-2,7,0
2910,-1,-1,-6,-2,-4,-5,-4,2,0
2915,-1,1,2,-4,2,2,0,-2,0
2920,-3,0,0,0,4,-2,-2,-4,0
2925,0,-2,-1,-2,0,-8,0,0,0
2930,5,0,6,5,3,0,-3,-2,0
2935,1,3,-4,1,4,-1,4,1,0
2940,-4,-8,-2,0,3,2,-2,2,0
2945,-2,1,-4,-4,-9,1,0,-1,0
2950,-4,0,-3,-1,-3,1,2,0,0
2955,-6,-4,-2,-2,0,0,-4,-3,0
2960,1,1,0,0,-1,0,-3,-1,0
2965,-4,0,0,-4,2,-2,-7,-3,0
2970,-3,1,2,3,-2,1,-3,-3,0
2975,-3,0,-6,2,0,3,-1,4,0
2980,-8,-1,-7,-4,-7,-5,-2,5,0
2985,2,-3,2,3,0,-3,3,-3,0
2990,2,-7,0,-2,-8,-1,1,-2,0
2995,1,-4,0,-3,-1,-2,-2,-1,0
3000,-1,-2,0,-3,-2,4,1,-5,0
3005,2,0,-5,-1,-1,-2,-1,-1,0
3010,3,-2,2,-3,4,0,-1,0,0
3015,-1,-2,1,-4,-7,-1,0,-2,0
3020,-2,-3,1,-2,-1,-1,1,0,0
3025,2,0,6,-2,2,0,0,-3,0
3030,3,-5,-5,-1,1,-2,1,-4,0
3035,-4,-4,3,-1,-1,1,0,2,0
3040,0,0,-3,-4,-2,1,-3,-2,0
3045,-3,5,-1,3,0,1,-5,-2,0
3050,-1,-1,-3,-4,-2,2,-1,3,0
3055,2,0,-1,-2,-3,0,-2,-1,0
3060,-3,-4,0,-2,-3,-2,1,-6,0
3065,1,0,-4,-1,5,-3,1,-1,0
3070,0,-3,4,1,-1,-3,2,-1,0
3075,-3,2,-2,-1,-1,-5,-3,-4,0
3080,1,-2,1,-1,-2,0,3,-6,0
3085,-1,-1,-1,-5,-2,-2,1,-3,0
3090,-9,2,-1,-7,-7,-9,-3,-1,0
3095,2,-1,-3,-4,2,-2,0,-1,0
3100,3,2,-1,-2,-5,0,-3,4,0
3105,-3,-3,-2,-1,-1,0,-2,0,0
3110,-5,-2,-3,-4,-2,2,1,-1,0
3115,-2,2,0,4,-5,-1,2,1,0
3120,2,2,0,-3,2,-4,2,-2,0
3125,-3,-3,0,-1,-4,0,-5,0,0
3130,-3,-5,-6,-2,-2,-2,2,-4,0
3135,-1,0,-2,2,-1,-4,-3,-3,0
3140,2,-3,-1,1,2,0,-2,1,0
3145,-5,0,1,-4,-2,-4,-3,-1,0
3150,4,2,1,2,-2,-4,-1,-3,0
3155,-3,-2,-5,-4,0,-3,0,-5,0
3160,-4,-4,-5,0,1,0,2,-5,0
3165,-3,-6,-5,3,2,3,-1,-3,0
3170,1,2,1,0,-3,2,3,1,0
3175,-4,-7,-4,-3,-1,1,1,-7,0
3180,-3,-1,-5,-3,-6,-4,1,2,0
3185,2,-1,-2,2,-2,0,-6,-1,0
3190,6,2,-2,-3,0,-1,-3,-4,0
3195,0,-2,0,-2,-2,0,-1,2,0
3200,-4,-1,3,-2,-4,-1,-3,-2,0
3205,0,-5,-5,-1,2,-4,-3,0,0
3210,-3,-4,-2,0,-4,1,-5,2,0
3215,1,-3,-2,-3,2,-3,-4,-7,0
3220,-1,-3,0,-4,0,-4,0,-1,0
3225,-4,0,-1,-3,-4,-3,-4,-2,0
3230,-1,1,1,-1,0,0,1,-2,0
3235,-2,6,1,-3,-1,-3,-1,-2,0
3240,3,-6,-3,-4,1,1,0,-5,0
3245,-5,-3,-2,-1,3,0,3,0,0
3250,-1,-2,-2,0,2,-1,-2,5,0
3255,2,-4,-3,2,-2,-1,-3,0,0
3260,-3,-3,1,0,2,0,1,-6,0
3265,1,0,4,-6,-3,-2,-3,1,0
3270,2,4,4,4,1,-5,-4,-7,0
3275,2,0,-3,-2,-1,-1,0,3,0
3280,-5,-2,-5,3,4,-1,-2,1,0
3285,0,-3,-1,-3,-7,0,2,-5,0
3290,-1,-1,-2,0,1,-1,-1,-2,0
3295,-3,0,-3,0,-6,-3,1,4,0
3300,1,1,2,-1,-4,-3,1,0,0
3305,3,3,3,-3,0,0,0,3,0
3310,3,-1,-2,-5,-3,2,-2,-2,0
3315,-2,-4,-2,0,3,2,3,-3,0
3320,-2,-2,-2,-2,-4,-2,-4,-2,0
3325,0,-2,-2,-1,2,-2,-2,3,0
3330,-3,1,0,-1,-4,-1,6,-2,0
3335,0,0,1,4,8,5,-1,-2,0
3340,1,2,-3,-4,-3,2,0,-3,0
3345,4,-6,4,3,-2,0,-1,-5,0
3350,1,2,-2,-5,0,-4,-4,-4,0
3355,-2,-2,1,-3,-2,0,4,0,0
3360,-5,-3,1,0,-2,-3,-1,0,0
3365,1,-1,-2,-1,-3,-1,-3,0,0
3370,0,5,3,-4,0,0,-2,-2,0
3375,1,-3,3,-1,-3,-3,-4,-1,0
3380,1,2,2,0,4,3,-7,-1,0
3385,0,1,0,0,-3,-1,3,-1,0
3390,2,0,4,2,4,1,2,0,0
3395,-1,-1,-5,0,2,-1,-5,-6,0
3400,-4,-4,-7,0,4,5,0,-1,0
3405,-5,-2,2,-2,-3,-2,1,-3,0
3410,-3,-2,-3,-2,-4,-3,1,-3,0
3415,-6,3,1,-3,-3,-3,3,0,0
3420,0,0,-6,-2,-2,1,3,0,0
3425,-5,5,-5,-4,-5,-4,-1,-3,0
3430,3,-2,-2,3,5,-4,-4,4,0
3435,1,-3,0,-5,-1,-2,-1,3,0
3440,1,-4,-2,0,2,-4,-2,2,0
3445,2,-5,0,-5,-7,0,3,0,0
3450,0,0,-1,-1,-2,1,1,2,0
3455,-3,1,0,-3,-4,2,1,-3,0
3460,-1,-5,3,-5,-6,0,-3,1,0
3465,-3,0,2,0,2,-5,-6,-6,0
3470,-1,-3,-2,-1,0,-3,0,-1,0
3475,-1,-1,2,-4,-5,-2,2,-1,0
3480,-1,-4,-1,1,7,4,1,-2,0
3485,-2,-2,-4,-1,7,0,-2,1,0
3490,-4,-4,-1,-1,0,-4,0,-6,0
3495,-1,2,1,3,-4,-5,2,-5,0
3500,-1,-4,-5,-1,-1,-2,1,-1,0
3505,-3,2,2,4,4,-1,-3,-3,0
3510,1,1,-3,4,-2,0,-4,1,0
3515,2,2,-1,-3,1,-2,-1,0,0
3520,-2,1,1,-1,-6,0,1,-3,0
3525,1,2,0,0,-2,2,-1,2,0
3530,3,-1,-4,2,2,-2,-3,-2,0
3535,-3,-4,-2,-3,0,-2,-4,5,0
3540,2,1,2,-2,-5,0,-3,0,0
3545,-1,-6,-7,1,0,-3,1,-1,0
3550,-3,3,2,0,-6,3,-3,-5,0
3555,-1,-8,-1,-1,-2,1,1,-4,0
3560,-3,-1,-3,-2,-5,-5,-2,-4,0
3565,2,2,3,-2,-3,-1,0,3,0
3570,2,-1,3,-7,-6,-3,-1,-2,0
3575,-1,2,-3,0,-2,2,3,-1,0
3580,-2,2,1,0,0,-1,1,1,0
3585,3,-1,-2,-2,3,-2,-4,-5,0
3590,-6,-3,-2,-3,1,2,-6,0,0
3595,-2,-4,-1,0,-1,2,-3,2,0
3600,2,-3,3,2,-1,-3,3,1,0
3605,0,1,0,3,-6,-1,1,5,0
3610,0,-6,-6,-5,-2,-1,-1,-2,0
3615,0,1,1,1,-1,3,-1,-2,0
3620,-3,1,5,-3,-2,0,-10,-6,0
3625,-2,5,-4,0,-1,0,-3,0,0
3630,1,0,2,-1,1,3,-2,-6,0
3635,1,-2,-5,-2,-4,0,1,0,0
3640,-5,-4,-3,-5,5,0,-3,-2,0
3645,1,-2,4,1,1,1,-1,-4,0
3650,-1,0,-4,0,0,-4,-4,-4,0
3655,-3,2,-6,1,6,0,-5,0,0
3660,-2,0,1,3,5,-1,2,1,0
3665,-7,-4,0,-6,-5,-2,-5,-1,0
3670,-2,0,-1,0,-5,2,2,2,0
3675,1,-3,-1,-4,-4,-1,-3,-3,0
3680,-6,-4,-4,-3,-6,-3,0,0,0
3685,-2,-3,-3,-3,5,0,0,-1,0
3690,0,-4,3,1,1,0,-2,1,0
3695,-3,2,-1,0,-9,2,-4,-2,0
3700,2,-3,-6,0,-1,4,-2,3,0
3705,0,-4,2,-1,-2,1,4,-6,0
3710,-4,0,2,-4,-5,-3,-3,-2,0
3715,-1,2,5,-3,-3,-5,-3,0,0
3720,-1,-5,-4,-5,-3,0,1,1,0
3725,4,0,-2,0,2,1,-2,-1,0
3730,0,-1,0,-5,-5,-4,-3,-1,0
3735,-3,-2,-2,-1,3,-1,1,2,0
3740,-4,-3,0,-1,-4,0,0,1,0
3745,-1,2,-2,3,2,-4,-2,-1,0
3750,0,-3,-5,-5,-2,-4,-4,1,0
3755,-1,-5,-5,0,4,-3,-2,-4,0
3760,-3,-2,-4,-3,-2,-3,-2,-1,0
3765,-7,-5,-4,-1,3,0,0,0,0
3770,-2,-1,1,-2,-3,-1,-4,1,0
3775,-2,-3,-1,1,3,2,2,-3,0
3780,2,1,0,3,5,-1,3,2,0
3785,-1,-2,1,-7,-5,-3,2,-4,0
3790,-1,-2,-6,1,1,-2,-2,1,0
3795,-4,-4,2,-4,-4,-1,1,0,0
3800,-5,4,1,0,-2,2,4,-4,0
3805,3,0,-2,1,-1,-3,1,0,0
3810,1,-1,-1,-2,5,2,2,1,0
3815,-3,-6,-7,-2,1,2,-5,-3,0
3820,0,0,0,0,3,2,0,-2,0
3825,-3,0,-2,-3,0,-3,-5,4,0
3830,-1,-6,-3,-4,-2,1,-3,-4,0
3835,2,-4,-2,-1,-2,0,4,-3,0
3840,-3,-2,0,0,4,0,1,-5,0
3845,2,0,-2,-3,1,1,-7,-1,0
3850,-3,1,-2,5,-3,-4,1,4,0
3855,-5,-4,-2,-2,0,-4,-5,-3,0
3860,0,-1,-7,-1,-2,-3,-1,-4,0
3865,0,-5,4,-3,-5,1,0,-3,0
3870,-6,-2,-3,-5,3,-3,0,-4,0
3875,-5,-6,-1,-5,-2,1,-1,-2,0
3880,1,-4,-5,1,0,-2,-2,-3,0
3885,-2,0,3,1,-4,0,-3,-1,0
3890,-2,0,-1,-4,-1,1,1,-6,0
3895,0,-5,-3,-2,5,2,2,1,0
3900,-3,1,2,-4,-9,0,-4,-1,0
3905,-1,-2,0,2,5,-1,0,-1,0
3910,-1,0,3,-1,4,0,-1,-1,0
3915,0,-2,-1,-2,0,-3,-1,-1,0
3920,1,-6,-2,0,-2,2,0,0,0
3925,-1,-3,-1,-5,-6,-5,1,-3,0
3930,-1,-1,0,2,0,-4,0,-1,0
3935,1,1,4,3,2,3,1,4,0
3940,1,-1,3,-2,-3,-6,-3,2,0
3945,0,2,-3,-1,0,-3,-3,-1,0
3950,-4,-5,0,-6,-3,-6,1,3,0
3955,-3,0,-3,0,1,2,3,-1,0
3960,-2,-3,0,-1,0,0,3,-4,0
3965,-3,4,-4,3,-1,-4,-5,0,0
3970,0,-1,-3,-1,-2,-3,-3,3,0
3975,-2,3,-7,-7,-2,-3,-2,-3,0
3980,-2,2,3,4,4,1,-3,-2,0
3985,-1,-7,-6,-3,0,1,-4,-4,0
3990,-2,-2,2,0,-6,3,3,-1,0
3995,-5,4,-5,-3,0,-6,-1,-3,0
4000,-4,-4,-5,-1,2,1,2,0,0
4005,2,-1,1,-1,2,-2,2,0,0
4010,-4,4,8,4,4,4,1,-2,0
4015,0,-8,1,-7,-1,2,0,-8,0
4020,-2,0,6,0,2,-4,-4,2,0
4025,-2,1,-1,-2,-5,-1,2,-2,0
4030,5,-4,-2,0,1,-3,1,1,0
4035,2,1,2,2,-3,-3,-1,0,0
4040,-4,-1,-3,-7,3,-4,0,0,0
4045,4,1,2,5,4,-3,2,1,0
4050,-2,-2,-1,2,-1,-4,-4,-5,0
4055,-1,-5,-4,-2,1,0,0,-1,0
4060,0,-2,1,2,4,1,-3,-2,0
4065,-2,-5,-1,0,6,1,0,0,0
4070,0,3,2,-1,-3,0,-3,-3,0
4075,4,7,1,1,-2,-2,-1,2,0
4080,-3,0,-1,-3,-2,-4,-2,2,0
4085,-6,-3,-3,-2,0,2,5,-3,0
4090,2,0,-8,1,3,0,-2,-1,0
4095,-2,-2,0,2,1,-1,0,2,0
4100,1,0,-1,-2,0,-1,-4,-5,0
4105,-4,3,-8,-2,-2,-1,0,0,0
4110,-3,-5,-5,-3,5,-2,-4,-1,0
4115,2,4,-1,-7,-2,-2,-3,2,0
4120,1,-2,-5,-2,-7,-1,5,-2,0
4125,1,1,3,2,-2,-2,6,2,0
4130,1,6,2,2,1,0,1,-1,0
4135,-3,-6,-10,-2,1,-3,5,-4,0
4140,-3,-7,-2,-5,-2,-1,1,2,0
4145,2,2,1,-5,2,-4,-5,4,0
4150,0,-3,-3,-2,-3,-1,1,-4,0
4155,0,-2,7,4,-2,0,-3,-3,0
4160,-1,0,-2,-1,-5,0,5,-1,0
4165,0,4,5,0,-3,0,-3,2,0
4170,-1,-3,2,-3,-1,-3,5,6,0
4175,-1,-8,1,-1,2,5,-3,-5,0
4180,4,3,1,0,2,-2,-1,-1,0
4185,-2,-4,-1,-6,-4,1,-2,-5,0
4190,-3,3,-6,-4,-1,1,-5,-2,0
4195,-2,-1,1,3,4,1,4,-2,0
4200,0,-3,-2,0,-2,0,-5,-4,0
4205,0,5,-3,1,1,-5,1,-3,0
4210,3,1,-2,1,-3,-2,-2,-1,0
4215,-10,-3,-3,-3,1,1,-2,-2,0
4220,-2,2,0,-4,-4,-6,-2,-2,0
4225,0,-2,0,-5,-3,-3,-3,-5,0
4230,-1,-4,1,-2,-4,0,3,-1,0
4235,-1,-7,-2,-1,-3,-8,-3,-2,0
4240,-1,0,-4,-2,1,-2,2,1,0
4245,0,-5,-2,-3,-5,3,-3,-3,0
4250,1,-1,-5,-1,-1,-6,-3,-4,0
4255,2,2,-1,-5,-7,-3,3,0,0
4260,-6,-1,-3,-4,-2,-1,-4,1,0
4265,-2,-4,-2,0,-3,0,0,-3,0
4270,-2,1,3,2,-1,-7,1,-5,0
4275,3,4,-4,0,-6,-3,-5,-1,0
4280,3,0,-1,-1,-3,-1,0,-7,0
4285,-2,0,-1,3,5,0,-2,2,0
4290,2,-1,4,-3,0,3,0,-5,0
4295,-4,-2,-2,0,12,-1,2,1,0
4300,0,0,-3,-1,-1,-1,-4,5,0
4305,-4,-4,-1,2,-2,5,-3,0,0
4310,4,1,1,-1,-4,-3,-2,-3,0
4315,0,-3,3,1,-6,2,-3,1,0
4320,0,-2,-7,-4,-4,-1,6,-1,0
4325,4,-3,-3,-3,6,-3,2,1,0
4330,-3,-6,-5,-7,-4,-3,-3,1,0
4335,-4,-2,2,-4,-3,5,-1,0,0
4340,-1,-5,0,0,4,-2,2,-1,0
4345,0,1,-4,-4,-4,0,-5,-4,0
4350,-2,-2,0,1,2,-2,-2,1,0
4355,3,-6,-4,-4,1,-3,0,0,0
4360,-4,-2,1,-2,-2,-1,0,-3,0
4365,2,1,2,-3,-3,-8,-2,-3,0
4370,-2,-1,-2,0,-4,1,-3,-3,0
4375,-1,-3,-6,-7,-9,-5,-3,-2,0
4380,-1,-1,-1,1,2,6,-6,-5,0
4385,2,0,1,4,0,-1,-2,0,0
4390,-2,1,-1,-2,0,4,-1,2,0
4395,-4,-3,-3,0,-3,0,-2,5,0
4400,0,-6,-2,-2,5,3,0,1,0
4405,-4,-6,-2,1,-2,-2,-2,0,0
4410,-5,-4,-4,0,1,0,-4,-3,0
4415,0,1,-2,-2,-5,-2,1,0,0
4420,-3,-2,0,1,-2,-1,0,1,0
4425,-4,0,2,-6,4,-5,-2,2,0
4430,2,-1,-2,-1,-4,-1,1,-2,0
4435,-2,0,-1,-1,2,-2,-1,-2,0
4440,1,-3,-1,2,-3,-3,-4,-1,0
4445,4,1,3,0,1,-3,-5,-5,0
4450,-2,3,-1,-3,-6,-1,-1,1,0
4455,-4,-4,-2,1,2,2,0,-4,0
4460,2,1,-2,-4,-8,-5,-1,-2,0
4465,0,2,4,3,-6,-1,-3,-4,0
4470,3,-3,1,-2,0,-5,-2,-1,0
4475,-6,-1,2,-1,-5,0,4,-4,0
4480,-2,-2,-1,2,0,-2,-4,0,0
4485,4,3,-2,-5,-6,-2,1,-5,0
4490,-1,1,-2,-4,-3,-3,-4,-2,0
4495,-1,-2,-8,-1,-1,-1,3,-4,0
4500,-6,-3,-6,-1,2,-4,0,1,0
4505,-2,2,2,1,2,2,-1,1,0
4510,2,-2,3,3,-5,-3,3,3,0
4515,-2,-4,-3,-2,2,0,-1,3,0
4520,-2,2,1,-1,-2,0,3,1,0
4525,2,2,2,1,-3,2,0,-5,0
4530,-3,-10,-8,-2,0,-1,1,2,0
4535,3,-1,0,-1,-9,-3,5,-5,0
4540,-6,-8,-4,0,6,0,-1,2,0
4545,-3,-2,-7,-6,-6,-3,0,3,0
4550,-5,3,-4,0,-2,1,4,-1,0
4555,5,4,0,-2,-7,0,-6,-2,0
4560,0,4,0,-1,-3,-2,-5,-6,0
4565,-2,-2,-2,3,2,-1,-1,-1,0
4570,-2,0,2,2,3,-1,2,1,0
4575,-4,-3,-3,-3,-1,-3,-4,0,0
4580,0,-2,1,-4,-3,3,-1,-3,0
4585,-4,-3,-4,-2,2,1,-1,-5,0
4590,0,0,0,-3,0,-2,2,-5,0
4595,1,1,-1,-1,0,-3,-5,0,0
4600,-1,1,1,-4,-5,-2,-1,-1,0
4605,-1,-6,-5,-3,-1,-2,-1,1,0
4610,4,2,3,0,0,-2,-5,2,0
4615,0,0,3,2,-1,-4,-4,2,0
4620,-3,1,-5,-3,1,4,1,1,0
4625,-5,-4,-4,-7,0,-1,0,3,0
4630,0,-1,-5,-6,-6,1,-8,-1,0
4635,2,6,3,5,1,-3,-2,-2,0
4640,1,-2,3,-2,-4,-2,0,0,0
4645,-5,-7,1,-5,-7,-6,-1,-2,0
4650,-1,-6,2,-5,-7,0,-2,0,0
4655,-4,1,0,1,0,-1,-1,-3,0
4660,2,-5,-3,-2,1,0,1,-1,0
4665,2,-5,-1,-5,-6,-3,-1,0,0
4670,1,-1,-5,1,-2,0,-4,-1,0
4675,-1,-2,-5,-4,-3,-3,-3,4,0
4680,0,-4,-1,2,-1,0,2,0,0
4685,1,0,-2,0,-2,-1,0,-2,0
4690,-6,-4,-3,-5,-4,-2,-1,-8,0
4695,-2,0,0,-3,-6,0,0,1,0
4700,-8,2,0,-4,-4,2,-5,0,0
4705,-1,-6,-1,-2,-1,1,0,1,0
4710,-2,-2,2,-2,2,-3,-4,-1,0
4715,-4,-4,-3,2,1,1,1,5,0
4720,1,0,0,-2,-3,-7,-1,-1,0
4725,2,-5,-7,0,-2,-2,0,2,0
4730,-4,5,-4,-3,2,2,5,-1,0
4735,-3,-6,-4,-2,7,0,1,-1,0
4740,0,-4,-4,-1,1,3,-3,1,0
4745,0,2,-3,1,5,2,3,-5,0
4750,1,-1,0,-1,1,-7,2,-4,0
4755,0,5,-3,-4,-3,-2,-5,1,0
4760,-2,5,0,-2,-7,1,2,2,0
4765,-1,-1,1,2,4,-2,-1,1,0
4770,-1,-1,-2,2,0,-3,1,3,0
4775,1,-3,1,-2,3,-5,-5,0,0
4780,-2,-2,-4,-5,-4,-3,0,-4,0
4785,-2,3,-4,-1,-6,0,-4,0,0
4790,-3,1,4,0,-9,1,-3,0,0
4795,1,-3,-3,-1,-2,-2,0,-1,0
4800,-1,-3,-2,-2,6,-5,1,-1,0
4805,-3,-1,1,0,-6,-1,-2,5,0
4810,-1,-5,-4,-3,-1,-1,-2,0,0
4815,-4,-1,1,4,3,0,0,0,0
4820,-4,-4,-1,-1,-1,-1,-1,-3,0
4825,-6,-5,-2,-8,2,-2,1,1,0
4830,2,-2,5,5,0,0,-2,2,0
4835,-1,-1,-1,-8,-3,-2,-3,-4,0
4840,6,1,1,2,1,1,-2,1,0
4845,-1,0,-1,-1,-1,-4,-1,-2,0
4850,3,1,1,-2,6,-1,-1,1,0
4855,-3,-5,0,-5,-12,2,4,-4,0
4860,-5,-3,-4,0,-5,3,-2,3,0
4865,-1,-3,1,0,-1,-6,1,-2,0
4870,0,-1,-2,3,1,-5,0,-2,0
4875,0,1,2,0,0,1,0,3,0
4880,-3,-5,-2,0,-1,-4,-6,3,0
4885,0,-1,-3,-2,0,1,3,-1,0
4890,-6,3,2,2,4,-2,0,2,0
4895,1,-4,-2,4,7,1,0,-4,0
4900,-1,3,1,-1,5,-4,-1,-4,0
4905,-1,3,5,4,-4,3,-2,2,0
4910,1,1,-1,-4,1,-3,1,-3,0
4915,-1,2,-2,1,1,0,0,-8,0
4920,-2,-1,0,-1,-5,-1,5,0,0
4925,4,3,-1,-2,-3,-6,-2,-1,0
4930,-2,-1,0,-4,2,1,-4,-5,0
4935,-2,2,2,-4,-13,-1,-4,2,0
4940,-2,-2,0,-6,-4,-2,3,-5,0
4945,-3,-4,-1,0,4,4,-1,-2,0
4950,5,0,-5,0,-7,3,-3,1,0
4955,-8,-2,-3,-1,5,-4,-1,0,0
4960,-1,-1,2,1,1,2,1,-5,0
4965,3,5,-1,-1,-3,0,2,-8,0
4970,-2,-2,-1,-3,-6,0,-1,-2,0
4975,0,-8,0,-4,0,0,-6,-2,0
4980,3,-2,-5,0,1,-2,0,0,0
4985,-1,1,-5,-1,6,-3,-2,-1,0
4990,-1,-2,-7,0,1,-1,2,-2,0
4995,4,-2,-4,-2,3,3,0,0,0
5000,-6,-2,2,0,6,-1,1,-1,0
5005,5,0,1,1,-4,-2,1,1,0
5010,-1,1,-2,-2,-3,2,1,-4,0
5015,0,-6,0,-2,-8,-3,-2,2,0
5020,2,0,-1,1,-1,-4,-5,-2,0
5025,-1,1,0,3,1,1,-1,-3,0
5030,1,4,1,0,0,-1,-1,3,0
5035,1,-3,-4,0,3,-8,1,-1,0
5040,-2,-2,-2,-2,-6,-2,0,-3,0
5045,-6,-3,-6,-6,-2,0,-2,8,0
5050,-1,-7,2,1,0,-1,-6,-2,0
5055,-5,-4,0,-2,1,2,5,-7,0
5060,2,4,-4,-4,-4,-1,-4,-1,0
5065,-5,3,1,-2,-1,0,-1,-1,0
5070,-1,-3,3,1,2,1,2,0,0
5075,5,4,1,4,2,-2,2,1,0
5080,1,1,-4,-3,-5,-3,-7,-3,0
5085,0,1,0,-1,-1,-6,-2,-4,0
5090,-4,-5,-1,0,-4,-3,-3,1,0
5095,-1,-1,-1,-3,0,0,3,0,0
5100,0,2,-1,0,-2,1,1,3,0
5105,-4,-4,-5,-3,4,-3,-1,0,0
5110,-1,-3,-3,0,2,-5,-3,-3,0
5115,-3,2,-1,-2,-2,-1,1,-1,0
5120,-4,0,-3,0,5,-2,0,4,0
5125,-1,1,-4,-1,-1,2,-1,0,0
5130,0,-2,-3,-5,-3,-5,-2,-3,0
5135,-4,1,-2,-1,2,-5,-3,3,0
5140,4,-3,3,1,2,1,-1,1,0
5145,1,-3,1,2,0,1,-1,-2,0
5150,-1,-7,-2,1,1,-4,3,-1,0
5155,2,2,1,2,-5,6,-4,-1,0
5160,0,-5,-2,0,-1,0,4,-2,0
5165,-1,-8,-7,-3,4,0,-2,-2,0
5170,-6,-5,-7,0,4,3,1,0,0
5175,3,0,-1,-2,1,-4,1,4,0
5180,-6,-4,-5,-7,2,-3,-1,-4,0
5185,-6,-5,-1,-2,-3,-4,1,0,0
5190,-3,3,0,-3,-4,2,2,0,0
5195,-1,-2,-4,4,1,-5,-1,-3,0
5200,3,-2,1,-2,-3,-3,-4,1,0
5205,0,-3,0,-4,-6,-3,-4,-3,0
5210,-3,-1,-1,-5,-10,-1,-3,-5,0
5215,-3,-2,0,-1,0,-1,-3,-4,0
5220,-4,-3,1,-2,2,0,-1,2,0
5225,1,-1,-2,5,2,-3,0,-1,0
5230,-2,-5,-5,0,2,-1,-4,-3,0
5235,5,-1,-3,1,-6,3,-3,1,0
5240,-1,-1,-1,0,0,-1,0,-1,0
5245,0,1,2,2,3,0,0,6,0
5250,2,-3,-1,1,0,-2,-2,3,0
5255,5,-2,-1,-5,0,-2,-1,-4,0
5260,5,2,1,0,-1,-3,1,-2,0
5265,0,1,1,-4,-9,-2,-2,0,0
5270,1,9,4,0,-2,-3,1,1,0
5275,-5,-2,-2,-2,2,-1,0,0,0
5280,2,-2,-4,0,-4,-1,-4,3,0
5285,-2,0,2,3,5,4,0,-4,0
5290,0,-1,-1,-4,1,-1,-4,-8,0
5295,-6,-2,-2,-6,-3,-6,-5,2,0
5300,-4,-3,-2,-1,2,0,1,-1,0
5305,0,-1,-4,-5,0,-4,-3,-7,0
5310,2,-3,0,-4,-5,-1,-3,-1,0
5315,1,-3,-1,0,3,-1,4,0,0
5320,-5,-5,-4,-5,-1,-3,-1,-3,0
5325,-1,-1,-3,-1,-1,0,-1,-3,0
5330,0,1,1,-2,1,0,2,3,0
5335,3,2,-2,-2,-5,0,1,-6,0
5340,-2,-1,0,-1,-1,-6,-3,0,0
5345,6,1,3,-1,1,-5,-1,-2,0
5350,-4,0,-3,0,3,-1,3,-2,0
5355,1,1,5,3,-1,2,-1,-1,0
5360,3,1,2,2,0,-1,0,-5,0
5365,-2,5,2,-3,-6,3,-4,0,0
5370,1,-2,-2,-4,-5,1,-1,0,0
5375,0,0,0,1,-2,-1,-1,3,0
5380,2,-3,1,-2,-5,0,-2,-3,0
5385,1,0,-3,-2,-1,-4,-1,-3,0
5390,-2,-2,-2,-1,3,1,-2,-2,0
5395,-2,0,-4,-5,-3,2,-1,-4,0
5400,0,2,1,-2,-1,-2,-3,-4,0
5405,-4,0,0,-1,-4,0,-3,-1,0
5410,0,-7,-3,1,1,-2,0,2,0
5415,-1,-8,-7,-2,0,-3,-3,0,0
5420,1,-3,-3,-1,6,-2,1,-3,0
5425,0,-4,1,-5,-9,-2,3,3,0
5430,2,-4,-3,-1,-2,-2,-2,-3,0
5435,-4,-3,-3,-5,-3,-4,1,1,0
5440,0,-3,-3,-3,-6,3,2,3,0
5445,-1,-3,-1,0,-8,-1,-1,-2,0
5450,0,6,1,-6,-2,-3,3,-3,0
5455,1,2,-2,1,2,0,-1,-1,0
5460,-2,0,0,1,-4,3,-8,-2,0
5465,-1,0,-4,-4,5,-5,-1,0,0
5470,1,1,1,0,-3,4,0,2,0
5475,-6,-1,-4,-2,-1,-3,6,1,0
5480,1,0,1,0,-2,-2,1,0,0
5485,1,-2,-6,-2,-2,-2,-3,2,0
5490,-6,3,1,-2,-6,4,0,3,0
5495,0,-4,-1,-1,0,1,-6,1,0
5500,-2,0,2,-3,-1,-1,-1,0,0
5505,-3,3,-3,-1,-4,-1,0,-2,0
5510,4,3,-3,-1,-7,-6,0,0,0
5515,-3,-2,0,-6,-2,4,2,-2,0
5520,-4,-3,-7,0,-8,0,-5,3,0
5525,2,-2,0,2,7,-3,-3,-2,0
5530,0,5,-2,-1,1,-1,-2,1,0
5535,-3,-4,-1,3,-5,1,-2,-2,0
5540,8,4,9,5,-4,-3,1,-2,0
5545,1,1,1,1,-2,0,-3,-1,0
5550,5,0,-2,2,-1,-2,-3,-1,0
5555,-2,-1,-6,-5,4,-1,1,-3,0
5560,-3,-1,1,-1,-2,-1,-1,-3,0
5565,3,-2,4,-4,-2,1,-4,-2,0
5570,1,-6,-1,3,5,-1,0,-1,0
5575,-1,-5,4,1,1,-1,-1,0,0
5580,-2,0,-4,-3,0,-6,3,3,0
5585,-3,2,2,-1,-1,-4,-6,-1,0
5590,-2,-4,0,-4,6,-3,-4,-8,0
5595,-1,-2,-1,-4,-1,2,0,-1,0
5600,-1,-2,-4,-1,-2,2,1,-1,0
5605,-4,-1,-3,2,0,-3,-1,6,0
5610,0,-2,4,-2,-3,-1,-6,-2,0
5615,-6,-3,1,0,0,0,-5,0,0
5620,4,-3,-2,-2,-6,0,-5,3,0
5625,-2,-1,0,-3,-3,0,-4,-1,0
5630,-4,1,-1,0,-3,1,-4,2,0
5635,-2,0,-2,-3,-3,-1,-3,0,0
5640,3,5,5,2,-1,0,-1,2,0
5645,0,-6,-3,-3,1,2,2,3,0
5650,-4,-4,-2,2,5,-2,-3,-3,0
5655,3,-3,-1,-1,-9,-1,-4,2,0
5660,4,3,-2,-1,3,1,-4,-1,0
5665,4,0,3,-2,-4,2,-5,-3,0
5670,-11,1,-1,10,0,-5,4,-4,0
5675,-3,30,0,35,4,19,5,-4,0
5680,-4,-27,3,-21,4,-3,-3,3,0
5685,4,13,-9,-10,3,-2,-3,-4,0
5690,1,-31,6,-34,-8,-9,-2,1,0
5695,0,-13,-2,-19,1,-7,5,-2,0
5700,-6,0,-7,10,-1,4,-2,5,0
5705,4,-2,7,13,-4,5,2,-2,0
5710,-1,14,-4,28,-6,0,-8,1,0
5715,1,3,-3,-8,-6,-3,-5,0,0
5720,-3,-9,-3,-7,-5,-4,-6,-4,0
5725,-4,-4,-2,-6,1,-3,-5,1,0
5730,-5,8,-5,2,-4,3,-4,-4,0
5735,-1,-3,-1,-1,-5,-4,-2,-2,0
5740,3,14,2,-5,-2,-2,2,-4,0
5745,-5,-1,2,-11,-11,-2,2,2,0
5750,0,-5,4,-14,-2,-8,-14,-7,0
5755,0,-10,0,-15,-3,-3,-1,-2,0
5760,0,-6,-11,4,-1,0,-2,5,0
5765,-3,-6,-7,19,5,7,14,-5,0
5770,-1,31,3,-6,7,1,26,-5,0
5775,-4,-2,5,-30,-8,-13,12,-2,0
5780,-3,6,-2,-20,-10,-15,6,-11,0
5785,0,-7,-1,20,-3,-8,24,-12,0
5790,-4,-15,8,33,2,8,15,-7,0
5795,-12,-17,-14,13,13,-14,-29,-4,0
5800,-20,-49,-60,17,-7,-26,-92,-5,0
5805,15,-114,17,12,4,24,-40,24,0
5810,34,79,-25,105,24,44,94,12,0
5815,8,79,10,26,1,14,-88,10,0
5820,-14,-71,55,-86,-16,-105,-70,-13,0
5825,-20,-7,-5,15,-9,-128,78,-18,0
5830,4,9,8,-78,-10,-74,76,-3,0
5835,2,-44,1,-27,-4,8,-44,-9,0
5840,-12,18,-48,62,-11,127,-108,3,0
5845,-2,-4,17,-12,-5,127,-108,11,0
5850,9,49,16,2,-4,127,88,19,0
5855,-6,53,-23,12,12,19,127,2,0
5860,-3,-9,-1,-34,26,-48,22,-1,0
5865,3,20,6,-16,9,-100,54,4,0
5870,6,5,-12,31,9,-128,56,4,0
5875,-4,-27,-15,78,-20,-98,-103,0,0
5880,-6,-23,8,1,-15,-32,-74,-16,0
5885,5,16,1,-50,-11,-110,58,-13,0
5890,-5,-22,2,-51,0,-114,44,-5,0
5895,-5,-38,12,-57,-7,69,-80,-12,0
5900,-2,6,1,-3,-101,100,-41,1,0
5905,0,24,-11,10,-119,-59,19,0,0
5910,-8,-30,5,-7,-59,-72,-68,8,0
5915,2,-6,0,37,-11,-100,-42,0,0
5920,5,31,-10,77,127,87,-36,1,0
5925,-1,16,-9,6,127,-35,-71,1,0
5930,-5,-32,1,37,122,-82,-41,3,0
5935,-2,-6,3,-13,86,-128,82,-4,0
5940,0,10,12,-56,3,-57,105,-7,0
5945,1,1,7,-52,-21,91,47,0,0
5950,-1,-20,8,-37,-31,123,-23,-2,0
5955,-5,-3,5,-34,-37,127,39,-2,0
5960,2,8,-1,-1,-31,51,100,-3,0
5965,1,4,-11,12,-14,103,21,1,0
5970,5,8,-22,18,-29,111,-53,-2,0
5975,-1,-28,-8,-11,-31,94,23,0,0
5980,-4,-18,4,14,-16,11,70,-1,0
5985,1,8,3,27,6,51,-7,-2,0
5990,0,-23,15,5,-18,65,-49,-3,0
5995,-3,-2,-11,4,-8,48,29,-5,0
6000,-3,9,-10,14,-2,77,42,-7,0
6005,0,9,-5,20,4,9,-18,4,0
6010,1,-4,-1,-7,-3,-56,-23,1,0
6015,-6,-9,3,-7,-5,93,20,-1,0
6020,-1,-9,-7,-1,-5,65,19,1,0
6025,-1,-2,-7,-6,-1,-37,-12,-2,0
6030,-5,-7,3,-13,-11,-91,-15,-5,0
6035,0,-6,-5,5,4,-1,8,0,0
6040,4,7,2,3,0,87,12,-6,0
6045,-1,2,2,6,7,-44,0,1,0
6050,1,-1,1,-1,6,-66,-14,4,0
6055,-6,1,-4,8,0,51,0,1,0
6060,1,3,1,4,-4,66,15,3,0
6065,-1,9,-3,3,-6,5,-1,0,0
6070,-2,-7,4,-3,0,-56,-15,-2,0
6075,-1,-16,4,-14,-6,61,1,-5,0
6080,-3,3,-1,-7,3,31,13,-3,0
6085,-1,4,0,-8,0,17,-4,-3,0
6090,4,3,3,-10,-3,-13,-13,2,0
6095,0,-3,-2,-14,-5,-11,5,-4,0
6100,2,4,-2,-12,-3,18,8,-1,0
6105,-6,2,-2,-8,2,-41,-6,-3,0
6110,1,0,1,-7,3,0,-6,0,0
6115,1,-4,-4,7,3,8,4,-2,0
6120,0,0,-2,6,3,14,3,1,0
6125,1,7,1,8,4,6,-3,3,0
6130,-3,-1,-7,0,-3,-17,-4,1,0
6135,-1,-4,-3,5,5,-3,1,-1,0
6140,-5,4,-4,4,-4,13,2,3,0
6145,2,8,0,7,-1,-27,0,-4,0
6150,0,7,2,-1,2,-24,-4,0,0
6155,-4,1,-7,-1,0,40,0,0,0
6160,-5,-1,-2,-7,-6,41,2,-5,0
6165,3,-3,1,-21,-2,97,-1,2,0
6170,3,-15,-4,23,4,10,-5,-1,0
6175,-5,-7,-2,-7,-7,56,0,3,0
6180,-2,-7,-2,-8,-8,11,2,-1,0
6185,2,0,1,-1,-7,33,-1,-4,0
6190,-7,5,-1,-10,2,-5,79,4,0
6195,-1,2,-8,5,-1,22,21,1,0
6200,-4,1,-4,8,4,-5,26,-6,0
6205,3,3,-1,13,-3,-75,106,-1,0
6210,-4,6,-4,4,6,22,93,-1,0
6215,-5,-2,1,1,-2,21,-66,-1,0
6220,1,-2,0,-1,4,-4,-81,2,0
6225,4,-1,3,2,4,-30,69,-1,0
6230,1,2,-2,-7,-3,-21,96,-6,0
6235,0,-2,0,-19,-4,18,-48,1,0
6240,-2,-3,-3,-11,-4,-12,-59,-4,0
6245,1,-5,-3,2,0,-30,48,0,0
6250,-3,-8,-4,0,3,0,69,1,0
6255,-2,1,0,-8,-10,8,-30,-6,0
6260,1,0,0,-6,-1,30,-81,1,0
6265,-4,-3,-6,7,4,-31,47,-1,0
6270,-2,2,-6,-5,-7,0,42,-2,0
6275,-3,-2,-4,1,-3,41,-70,1,0
6280,-1,0,0,1,4,9,-45,0,0
6285,1,-3,2,-1,-1,-20,30,-3,0
6290,1,-9,-1,-2,1,8,13,-5,0
6295,-4,-11,-4,-4,-3,15,-29,-4,0
6300,-1,2,-2,-3,-4,13,-56,-2,0
6305,-3,0,2,2,0,-6,19,4,0
6310,-1,0,0,-2,-2,24,-5,-1,0
6315,-1,3,2,0,-5,20,-36,-3,0
6320,0,2,-1,7,2,-7,-16,-1,0
6325,4,1,0,1,-5,19,5,-3,0
6330,-6,-12,-4,0,2,111,-95,0,0
6335,-4,-2,-2,-4,4,15,-24,-3,0
6340,-1,-6,3,3,0,-27,67,-2,0
6345,-2,-3,2,1,2,1,13,-3,0
6350,-3,0,-3,3,4,-38,27,3,0
6355,2,3,2,-13,-12,21,-17,-4,0
6360,-1,18,-6,-16,-6,46,-65,7,0
6365,2,6,-14,15,2,40,11,-4,0
6370,-5,16,1,-24,-9,-10,-62,-8,0
6375,4,-37,10,10,-3,6,74,-10,0
6380,3,1,-7,8,9,-2,127,4,0
6385,-2,-18,-1,-22,-11,118,-26,6,0
6390,-1,-4,-2,5,-1,36,-93,-7,0
6395,2,22,-5,6,1,16,18,-5,0
6400,6,-7,5,-1,-9,-18,-68,-7,0
6405,-10,-12,-7,3,-1,40,-128,-1,0
6410,-4,-12,-1,7,1,-15,-92,-5,0
6415,-3,2,8,-7,13,-26,-28,-5,0
6420,-4,26,-6,-6,6,13,-25,2,0
6425,0,3,-4,-20,3,-39,-102,9,0
6430,1,-16,0,-16,-4,-4,-68,2,0
6435,0,7,2,-11,2,21,12,3,0
6440,6,13,-2,33,-9,39,-11,-5,0
6445,-5,-1,-1,-2,-6,29,-59,-2,0
6450,-2,-13,4,-7,0,22,-43,-1,0
6455,0,-12,-1,-9,4,-42,-73,-1,0
6460,3,-22,0,4,2,13,-95,-4,0
6465,-3,-5,-8,21,5,-40,44,8,0
6470,7,32,-6,1,-12,84,-49,-13,0
6475,-5,62,-7,30,-2,-45,21,-11,0
6480,-6,20,11,-68,0,32,-62,6,0
6485,2,-13,29,-41,3,39,14,3,0
6490,-1,-23,1,33,3,127,101,15,0
6495,10,-5,-36,22,6,-128,127,23,0
6500,8,3,15,60,0,-110,79,-18,0
6505,-8,40,-30,41,-6,108,15,-8,0
6510,-9,-96,10,-65,-29,8,5,-7,0
6515,1,-46,15,-27,-7,-105,-37,2,0
6520,-3,15,-17,-13,18,-128,29,8,0
6525,9,11,-4,-30,-1,95,-58,-1,0
6530,-1,105,-36,-37,-7,6,-4,-12,0
6535,1,-17,8,-23,-1,-66,-8,1,0
6540,5,-75,17,-1,-12,-128,22,-10,0
6545,-4,-36,12,-12,-13,62,-7,-27,0
6550,-3,-25,7,9,-27,27,-21,-10,0
6555,8,19,12,7,4,-56,55,4,0
6560,1,64,-3,27,15,-22,70,4,0
6565,-14,7,-8,26,0,80,-41,-8,0
6570,-10,-4,-14,27,13,127,-123,-2,0
6575,2,-1,-8,-8,-2,76,-111,0,0
6580,-2,-10,3,-5,-6,-68,-37,8,0
6585,-4,-10,-13,-21,-11,-108,9,11,0
6590,-5,-10,11,-25,1,-98,79,9,0
6595,-2,-12,11,20,-2,-89,112,15,0
6600,7,-15,4,7,4,-13,91,4,0
6605,-1,10,6,4,5,2,77,-11,0
6610,-10,-6,4,2,2,-36,122,-10,0
6615,-2,-6,-7,-36,-48,-67,-95,-8,0
6620,-1,-16,-6,1,2,26,49,-9,0
6625,-1,-9,-5,-22,-17,-11,1,2,0
6630,0,13,-4,8,8,26,43,3,0
6635,-3,10,3,8,9,98,-43,2,0
6640,3,-1,0,-9,3,29,-67,4,0
6645,1,-12,-8,14,-2,-6,35,-5,0
6650,2,-20,-13,25,-28,42,-60,-10,0
6655,-3,5,-2,3,6,53,-39,-7,0
6660,-1,16,8,-19,-14,2,16,1,0
6665,-5,3,3,-6,8,3,39,-5,0
6670,-1,3,-5,-38,-5,-5,-50,2,0
6675,-1,-6,4,-22,6,23,-34,15,0
6680,0,2,12,-24,7,5,-97,21,0
6685,-4,10,12,-15,9,-14,40,-2,0
6690,-3,-2,0,-15,-2,-8,-74,5,0
6695,6,4,-6,30,3,7,-9,-14,0
6700,3,-8,-9,20,-5,-24,-2,-12,0
6705,-3,-11,-13,10,-10,-20,-47,-35,0
6710,-3,5,-13,8,-1,-6,5,-21,0
6715,-3,-17,-10,15,8,24,30,7,0
6720,3,-25,-4,7,6,9,-9,13,0
6725,-3,10,-4,-20,1,7,-45,4,0
6730,-4,32,6,7,6,9,-30,2,0
6735,2,7,-2,3,0,16,17,7,0
6740,-3,-4,3,8,-8,1,27,3,0
6745,4,5,-4,6,-4,-15,-51,5,0
6750,-4,3,-13,1,4,6,12,-9,0
6755,0,1,-3,1,-6,-1,48,0,0
6760,-3,16,-9,14,-3,-7,-9,0,0
6765,0,-19,1,-6,-1,-5,-64,-2,0
6770,-3,0,3,-14,3,1,-16,2,0
6775,3,15,9,-7,4,2,53,-10,0
6780,2,-10,2,-25,-4,2,11,-8,0
6785,-5,-17,-2,-13,-2,-6,-48,1,0
6790,-1,-21,6,7,0,2,-5,4,0
6795,-2,-3,8,-6,3,7,21,-5,0
6800,-2,14,-1,-10,3,2,8,-2,0
6805,5,1,1,13,1,-8,-27,-2,0
6810,6,-13,1,3,-2,-2,-22,4,0
6815,1,8,2,2,-6,7,7,0,0
6820,-2,15,-1,1,-7,-1,6,-2,0
6825,-5,7,0,9,1,-12,-3,6,0
6830,-5,-15,-8,6,2,-7,-4,4,0
6835,-5,-5,-7,7,-3,-2,12,-3,0
6840,-6,-2,-3,5,2,-2,12,-8,0
6845,-2,-5,-4,-3,3,-7,-18,4,0
6850,0,-4,0,-12,5,-2,-7,0,0
6855,-4,-5,-3,-12,4,0,14,-2,0
6860,-1,-1,-1,-14,-2,-3,0,-3,0
6865,-2,0,-7,-2,2,-5,-10,4,0
6870,-1,-2,-4,-4,5,-1,1,2,0
6875,1,-6,0,1,4,4,6,6,0
6880,1,-2,-1,7,0,-1,0,-3,0
6885,7,3,4,16,0,0,-12,-17,0
6890,4,-17,-13,18,2,-24,28,-26,0
6895,-6,4,-23,-9,9,-31,16,-3,0
6900,-7,-6,12,-60,14,-9,-31,14,0
6905,-4,30,1,-3,-28,11,-75,46,0
6910,-4,48,-2,48,-5,25,-17,23,0
6915,-20,-1,-11,22,-10,-2,56,13,0
6920,-13,-55,10,57,-2,24,-76,57,0
6925,44,-93,28,-62,-2,15,94,-56,0
6930,-3,79,-12,27,-14,15,47,8,0
6935,-8,-40,3,94,-12,86,26,-22,0
6940,-22,-80,21,-84,20,2,10,78,0
6945,-25,32,-8,-46,4,-24,-59,-38,0
6950,17,0,-2,22,-15,-9,-35,-71,0
6955,33,78,-13,-56,-5,-31,3,-128,0
6960,12,26,8,25,-27,-56,0,-42,0
6965,-16,-72,26,19,-1,3,-21,127,0
6970,-6,-21,-6,-33,13,29,-3,86,0
6975,2,23,-20,53,2,25,-17,115,0
6980,5,14,-19,65,-4,30,3,61,0
6985,-10,27,-21,-74,-3,-42,-8,61,0
6990,-1,-55,24,-82,-5,-35,15,-97,0
6995,-4,-28,21,-28,1,-7,-19,122,0
7000,4,60,-19,-9,-2,1,42,7,0
7005,13,17,-18,62,8,6,45,-114,0
7010,-3,-25,-4,46,4,46,12,63,0
7015,5,-32,16,17,-13,-26,-16,73,0
7020,11,2,-1,56,-15,-24,30,-21,0
7025,-6,14,-15,76,-1,2,-24,-50,0
7030,-1,-69,-7,23,-2,-22,-34,7,0
7035,-7,35,-3,-78,0,-12,-7,-128,0
7040,-8,43,4,-39,-1,8,9,-59,0
7045,-2,27,1,-80,-5,-2,-4,-46,0
7050,-7,10,-2,-104,5,7,-115,-14,0
7055,-5,-4,-1,-27,3,35,98,57,0
7060,15,-13,-1,13,-1,4,16,18,0
7065,-1,-56,10,77,15,22,-79,23,0
7070,5,-23,-3,46,-2,-26,-4,44,0
7075,3,-25,3,14,-11,-19,29,19,0
7080,-1,49,-6,-17,-1,-11,14,-70,0
7085,-1,32,-3,21,3,-2,-40,5,0
7090,-2,2,8,7,-1,0,-21,27,0
7095,-7,-25,11,-26,9,18,37,-16,0
7100,-7,-23,-15,-27,-17,-4,22,-3,0
7105,8,18,-18,17,0,-4,-75,49,0
7110,-5,18,-7,-5,5,4,-8,9,0
7115,0,-6,4,-1,-3,-13,56,-25,0
7120,2,-2,1,3,-8,-18,-25,13,0
7125,-4,3,-7,5,-8,-5,-70,30,0
7130,6,-4,-9,2,2,-1,-6,-17,0
7135,0,-15,0,9,-1,-17,50,-1,0
7140,3,-15,-2,4,1,7,117,1,0
7145,9,6,-5,-13,0,-3,-38,-1,0
7150,2,37,4,3,3,6,32,-2,0
7155,-6,4,1,5,5,-4,33,-9,0
7160,-8,-7,-2,-21,7,2,6,-16,0
7165,1,-7,8,-38,-3,7,-8,-13,0
7170,-1,0,0,-27,-9,-5,80,-3,0
7175,-1,3,-7,6,3,-4,-13,5,0
7180,-3,-6,0,13,5,2,47,-7,0
7185,2,-2,0,-5,-2,-7,38,7,0
7190,1,6,-2,-7,-2,-5,-125,3,0
7195,-13,2,-2,-16,0,1,17,-12,0
7200,-1,-5,-1,-11,-1,5,31,-8,0
7205,-2,4,2,4,-2,0,-19,7,0
7210,-4,-3,0,0,1,7,-61,0,0
7215,-6,-8,0,-3,2,7,3,-2,0
7220,-2,-2,-3,0,-2,113,-124,2,0
7225,-2,2,-2,-9,-10,106,3,-1,0
7230,2,-2,-1,-3,-3,3,-92,-3,0
7235,0,-8,-4,2,9,-68,-128,-1,0
7240,3,-5,-1,-3,0,-113,-128,-5,0
7245,0,-6,2,13,3,-105,-56,-2,0
7250,-4,-15,-1,2,-1,-87,-37,-6,0
7255,-4,-8,-5,-8,-5,-70,-26,-1,0
7260,2,8,2,1,11,-67,21,3,0
7265,-8,3,-8,-12,-1,-60,127,3,0
7270,-3,8,-2,-6,-4,-49,127,3,0
7275,8,18,8,6,-7,-28,47,4,0
7280,5,0,4,3,1,-29,85,-3,0
7285,-4,2,-3,7,4,-128,118,-1,0
7290,-3,-13,-5,5,0,-127,127,-3,0
7295,0,-8,-5,2,2,-123,2,-5,0
7300,3,10,-3,-1,1,-9,30,0,0
7305,-2,-5,-1,-4,-8,93,70,4,0
7310,-5,-8,0,-14,-9,127,57,-3,0
7315,-1,12,-7,-1,-5,127,-26,1,0
7320,0,2,-8,-11,1,109,-8,2,0
7325,4,-3,0,-19,5,114,45,-4,0
7330,-5,-13,8,-7,6,127,30,-2,0
7335,3,-20,5,-34,12,127,-32,3,0
7340,-3,-10,4,-33,-5,115,13,3,0
7345,-5,10,4,23,0,125,24,6,0
7350,2,-8,0,31,-1,70,17,2,0
7355,2,-6,-12,73,-8,-63,-21,-1,0
7360,1,-30,-7,31,-10,-51,-1,0,0
7365,-4,-14,-4,19,-9,-1,13,-7,0
7370,-2,22,-3,36,1,77,4,3,0
7375,1,27,-2,12,-6,-64,-13,7,0
7380,-7,22,-14,2,7,37,-3,-1,0
7385,-3,-12,-9,-25,5,62,7,0,0
7390,-4,-7,-4,-25,4,99,15,-10,0
7395,-3,4,-1,-13,5,-22,-12,-8,0
7400,2,2,5,4,-7,-101,-3,1,0
7405,-2,3,-3,-22,-8,-94,7,3,0
7410,0,2,-1,-4,2,69,6,-4,0
7415,6,-8,8,-4,-1,19,-11,-2,0
7420,0,-8,3,22,7,104,-6,-5,0
7425,0,-6,3,15,-1,100,7,0,0
7430,4,-7,3,25,-1,-31,4,-4,0
7435,6,-7,-2,14,-1,-41,-9,3,0
7440,-2,2,-4,-3,0,4,2,1,0
7445,-3,4,3,-23,2,65,3,3,0
7450,-5,2,2,-30,7,-63,3,0,0
7455,-5,10,0,-16,7,-32,-6,-3,0
7460,-2,7,-2,-6,1,-62,-1,-4,0
7465,-6,-2,-9,-4,-6,50,2,-6,0
7470,-6,-1,-7,-8,-4,-17,1,4,0
7475,0,0,-1,-7,0,-25,-4,-1,0
7480,0,-6,2,-4,-5,3,-1,-2,0
7485,2,1,8,4,3,46,1,-2,0
7490,5,-9,-4,-5,-2,-83,3,1,0
7495,5,-2,2,-7,-8,-30,-4,-2,0
7500,-2,-3,6,-1,3,-109,-1,-2,0
7505,4,3,4,-3,-3,-62,1,1,0
7510,-2,-4,2,-7,-4,-122,41,5,0
7515,0,-1,-4,-15,-7,-62,110,-5,0
7520,0,5,2,-2,2,47,80,4,0
7525,-6,-1,-1,2,2,48,-79,0,0
7530,-4,1,-2,0,0,32,5,5,0
7535,0,1,0,-7,1,-13,71,-1,0
7540,0,1,-4,-12,1,-41,-15,-1,0
7545,-4,4,0,-3,-4,-6,-55,2,0
7550,-4,3,2,1,-12,-33,-26,4,0
7555,-5,-2,5,-1,-6,-18,50,1,0
7560,3,-4,-6,-3,-5,56,66,-1,0
7565,2,7,1,11,1,17,-51,-2,0
7570,-2,-6,-4,7,10,126,-93,-2,0
7575,-6,-7,1,7,-2,3,64,-5,0
7580,-1,11,-1,-14,-18,35,54,-6,0
7585,1,-2,1,-12,-8,-19,-40,-4,0
7590,-1,3,-3,5,-1,-76,120,-5,0
7595,1,2,-6,2,2,-29,-111,-5,0
7600,-2,-12,5,16,1,-56,-69,-4,0
7605,-5,-4,-3,17,1,-81,-37,-2,0
7610,0,-4,0,-17,-6,27,-54,-4,0
7615,-8,-5,-4,-7,-6,116,-74,4,0
7620,-1,7,1,2,-1,43,-81,0,0
7625,3,0,3,14,27,72,12,3,0
7630,-1,3,2,7,-6,86,-21,-3,0
7635,0,6,-2,-24,-5,127,-42,-5,0
7640,3,-5,-1,-8,-1,127,-64,-7,0
7645,-8,-10,5,4,0,46,45,-6,0
7650,1,1,-1,11,11,-115,-1,-3,0
7655,-1,-8,-3,8,1,-34,-66,2,0
7660,-3,-2,-6,-16,-4,-93,-10,3,0
7665,2,5,7,1,-5,-128,46,2,0
7670,3,0,4,1,5,23,-7,0,0
7675,0,0,5,-4,3,127,-28,6,0
7680,1,-3,-2,-10,-5,-105,-3,-4,0
7685,-3,0,-13,-10,-1,-108,22,-1,0
7690,-4,2,2,6,9,53,-16,0,0
7695,0,9,-5,-3,-6,98,-8,1,0
7700,0,-4,1,-10,-1,-29,-2,3,0
7705,-5,0,-3,1,0,-100,4,-3,0
7710,0,7,-4,3,2,16,-1,-5,0
7715,2,-7,0,10,10,100,-2,-3,0
7720,-1,-7,0,0,-2,-18,-7,-2,0
7725,0,-8,-2,10,0,-110,20,2,0
7730,-1,4,4,20,2,22,1,-2,0
7735,-1,-5,-1,7,-9,100,-5,1,0
7740,5,4,-1,-12,-2,-39,-17,-2,0
7745,0,8,-4,-27,5,-85,10,1,0
7750,-4,8,-6,-11,3,51,2,-3,0
7755,-2,2,3,-19,-1,63,-16,-2,0
7760,1,-9,0,1,-4,-42,-3,0,0
7765,1,-2,2,6,-8,-52,16,-5,0
7770,-1,-12,3,3,10,36,3,0,0
7775,-2,-10,-3,-4,-3,32,-3,-5,0
7780,-1,4,-3,7,1,-23,-1,7,0
7785,6,-2,-3,0,-6,-26,10,-4,0
7790,-2,-2,-8,0,-2,13,-10,-2,0
7795,4,-1,-3,-4,-4,24,-3,9,0
7800,-2,6,2,5,5,85,-3,-3,0
7805,0,3,-3,-2,-5,43,-18,-9,0
7810,-4,-1,-4,-11,-14,-76,-6,-7,0
7815,4,0,-2,-4,6,-61,-1,-2,0
7820,1,0,4,11,5,44,-3,0,0
7825,-4,-4,3,6,-2,24,-3,-4,0
7830,2,-6,0,-1,-5,-51,0,1,0
7835,4,-1,1,8,2,-59,9,1,0
7840,2,2,-2,4,0,2,2,-3,0
7845,0,-7,-1,-1,-3,29,3,-2,0
7850,1,-6,-3,-9,-7,-34,-12,3,0
7855,0,8,-7,-4,4,-57,-5,0,0
7860,0,5,-2,-2,1,18,3,4,0
7865,-2,0,-1,-9,5,48,3,-3,0
7870,4,4,-5,-9,-4,-23,-5,0,0
7875,4,5,-2,3,-3,-55,-15,2,0
7880,-1,-3,-3,6,11,20,-8,-1,0
7885,-3,-11,-4,-8,-1,35,6,2,0
7890,1,5,4,-14,-14,-31,-1,-4,0
7895,-2,-2,-1,-2,-6,-31,-6,-3,0
7900,-4,-6,-6,12,-2,26,-6,-2,0
7905,4,10,-4,6,2,25,-13,5,0
7910,3,-4,9,-5,-4,-20,-2,0,0
7915,-4,-1,2,10,-7,-18,-5,-6,0
7920,-8,3,-2,18,-7,27,-3,1,0
7925,2,18,-7,1,6,18,3,2,0
7930,-5,3,2,3,-5,-12,3,-3,0
7935,-8,3,1,3,-5,-5,-8,2,0
7940,0,-3,0,-16,-1,0,7,0,0
7945,-1,-13,-4,-25,-7,-13,19,-6,0
7950,-4,-3,-10,-18,3,-23,-7,-1,0
7955,-5,-15,-4,1,2,-26,-12,-4,0
7960,-5,-7,1,54,-6,-3,1,-4,0
7965,6,1,-1,13,1,19,13,1,0
7970,3,-10,0,-12,7,7,1,-4,0
7975,-8,0,-3,1,-9,-4,-20,-6,0
7980,3,5,-5,-21,-3,16,-14,-3,0
7985,6,13,2,-1,3,22,3,4,0
7990,2,-1,-4,4,-6,-1,-4,-1,0
7995,-3,-15,-8,0,-7,-17,-11,-7,0
8000,-2,3,-1,-1,2,-7,-6,-6,0
8005,-4,-6,6,3,0,-1,21,3,0
8010,-6,-1,-6,-7,-2,-32,4,10,0
8015,-3,8,-1,-15,-8,4,-39,3,0
8020,-5,-3,-7,-2,-2,-67,-1,3,0
8025,5,9,5,19,-2,109,-7,6,0
8030,-3,9,-1,2,-11,-58,10,-2,0
8035,-9,-2,-7,-11,1,-93,16,-6,0
8040,-5,-2,2,-15,13,-20,-7,-2,0
8045,-3,9,12,-11,-3,76,-10,5,0
8050,2,0,1,13,20,14,-8,-3,0
8055,-1,-3,2,-3,2,-101,11,-6,0
8060,0,-10,3,0,-1,-32,3,-2,0
8065,1,-8,3,6,-5,49,4,-1,0
8070,4,-5,5,-25,-44,-43,15,-6,0
8075,-10,-4,6,2,3,-92,14,-7,0
8080,-4,-1,-6,-20,1,89,5,-3,0
8085,2,0,-8,9,5,93,-19,3,0
8090,2,3,-8,17,15,-9,-15,-2,0
8095,-5,3,-10,-12,2,-88,3,-4,0
8100,-8,4,4,-7,2,74,14,-4,0
8105,-1,4,0,-12,-5,60,0,-1,0
8110,0,-1,5,0,-4,-37,3,0,0
8115,-6,-4,-1,-5,-4,-57,6,-5,0
8120,1,1,0,7,1,16,-5,-2,0
8125,-1,-2,-1,-4,-6,32,-1,-2,0
8130,-4,4,3,5,7,1,6,2,0
8135,-1,-4,4,4,0,-14,6,0,0
8140,5,1,1,-20,-3,2,2,-4,0
8145,-2,4,-3,1,-10,-3,-10,3,0
8150,-3,-11,-2,1,-1,-2,-8,-1,0
8155,0,-7,0,8,7,-17,5,-9,0
8160,1,-5,-3,5,-5,6,0,-1,0
8165,2,-3,2,-6,-4,12,-3,-2,0
8170,-2,5,0,4,4,5,-1,1,0
8175,2,9,-1,7,7,-19,3,1,0
8180,4,-4,1,15,1,-5,-5,5,0
8185,4,-11,-4,1,-1,19,-7,-2,0
8190,-1,-10,-3,-3,-6,48,-8,1,0
8195,-5,-5,0,-2,2,-24,0,-4,0
8200,-1,2,0,2,3,3,-2,5,0
8205,0,2,6,0,3,12,2,-2,0
8210,-1,7,-2,-5,3,34,0,-4,0
8215,0,-3,-5,-4,1,-9,-2,-3,0
8220,-2,-1,-1,-3,5,4,-2,0,0
8225,-4,-1,-4,0,4,9,0,1,0
8230,-3,0,-6,-2,-5,28,-1,-4,0
8235,-1,-6,-1,1,-5,3,-2,-2,0
8240,-6,-2,3,1,4,23,3,-1,0
8245,-5,-3,-6,3,7,2,4,0,0
8250,2,-3,1,0,-3,-11,-2,3,0
8255,3,2,-5,-1,-1,-6,3,0,0
8260,-4,-3,-2,3,-2,9,-8,-1,0
8265,-3,-7,-3,-5,3,12,-6,-1,0
8270,-1,-2,-3,-3,-5,15,1,-3,0
8275,-1,-2,-1,-6,-3,-2,0,2,0
8280,-3,-3,-3,-6,-7,-10,-3,-3,0
8285,-3,3,0,4,-2,14,-3,-4,0
8290,-3,0,-3,0,0,-8,3,-2,0
8295,2,-2,2,-5,-10,-4,-3,1,0
8300,-1,1,-3,2,-4,2,-5,2,0
8305,1,-5,-1,-4,-4,6,0,0,0
8310,-2,-9,-6,-2,3,-18,5,-5,0
8315,-2,1,-1,3,-2,-2,2,-2,0
8320,4,0,-6,-2,6,6,3,-2,0
8325,3,2,1,-8,-5,8,-2,-1,0
8330,0,-2,-1,0,10,-8,2,0,0
8335,5,6,-2,9,8,-1,6,2,0
8340,-1,-1,0,7,-1,1,-3,2,0
8345,3,-8,-5,-3,6,6,5,-1,0
8350,-2,-9,0,3,0,-16,-2,2,0
8355,-2,-2,0,2,8,-4,-1,1,0
8360,4,-2,5,2,0,5,8,2,0
8365,-4,-1,-1,-2,-4,6,3,-2,0
8370,-9,-1,-4,-7,1,-5,-1,4,0
8375,-4,-4,-7,-9,-2,-1,2,-2,0
8380,-1,7,-2,-2,1,3,-1,1,0
8385,2,3,0,3,-3,3,0,5,0
8390,0,0,1,4,0,-2,-1,-2,0
8395,-1,-5,-1,2,2,-1,0,-3,0
8400,1,-9,-1,2,0,0,-1,0,0
8405,-5,-2,-4,-2,-4,2,-2,-3,0
8410,-1,2,4,1,-6,-10,-5,-1,0
8415,-1,1,1,1,4,0,0,4,0
8420,2,-3,-1,-1,5,0,1,0,0
8425,2,1,0,-3,6,2,-3,0,0
8430,-2,-3,-4,-6,-8,-18,-6,-6,0
8435,2,1,1,-1,0,-1,-3,-3,0
8440,2,2,4,3,5,4,3,1,0
8445,-2,2,-1,3,-2,2,-5,-2,0
8450,0,-1,-7,-6,-8,-3,-2,0,0
8455,4,-4,0,0,-2,-1,-4,0,0
8460,0,0,1,3,-1,12,-4,-2,0
8465,-1,-2,-1,-1,0,1,2,-2,0
8470,3,-4,0,1,-2,-7,0,1,0
8475,-1,3,0,-2,-3,-2,-5,-1,0
8480,5,-2,-3,-4,-2,13,1,-5,0
8485,0,-6,-7,-6,-8,3,1,-2,0
8490,-1,-5,-7,-1,1,-11,5,-5,0
8495,-1,3,1,3,2,0,-7,-1,0
8500,-2,8,0,-2,-3,7,-3,0,0
8505,1,-2,0,-4,-11,2,-1,-5,0
8510,-5,0,1,-1,1,-8,-5,4,0
8515,0,-4,1,-1,-2,0,-1,1,0
8520,-4,-1,-6,-4,1,11,1,-4,0
8525,4,-3,4,3,3,-1,-8,2,0
8530,-7,-8,0,-4,1,-6,-1,0,0
8535,0,-2,4,0,3,1,-3,0,0
8540,1,-3,-1,-2,0,9,2,-1,0
8545,0,-1,7,-3,-4,0,-3,-2,0
8550,1,-2,-1,1,-6,-2,-2,-5,0
8555,3,6,0,1,5,1,-2,-4,0
8560,-4,3,5,0,-1,4,-2,-1,0
8565,-7,-6,-4,-6,1,1,1,1,0
8570,-3,-3,1,0,0,-3,-6,2,0
8575,0,-4,-6,2,-5,0,2,0,0
8580,0,0,0,2,3,10,-3,1,0
8585,-1,0,-3,1,0,3,2,4,0
8590,-1,-1,-2,5,5,-8,2,-1,0
8595,-5,-4,-3,-2,-1,-2,1,-1,0
8600,4,-1,-3,-3,0,10,-1,0,0
8605,-1,1,-4,-1,4,4,3,0,0
8610,-4,4,0,6,7,-5,2,-2,0
8615,3,1,-1,2,0,-3,2,-2,0
8620,-3,-1,3,0,-1,2,-4,2,0
8625,-1,-1,-2,-1,3,2,-6,-5,0
8630,3,0,0,-1,2,-11,-3,-5,0
8635,-4,1,1,1,-1,0,-4,5,0
8640,3,-2,4,3,-4,2,2,-5,0
8645,0,-2,-6,-4,-4,2,1,5,0
8650,0,-1,2,3,10,-1,-1,-5,0
8655,-2,-2,-4,4,1,0,1,-3,0
8660,1,1,-4,-4,-1,2,-1,3,0
8665,4,3,-1,-3,-1,-1,-2,-6,0
8670,4,2,1,5,-1,-12,-2,2,0
8675,-5,-1,-2,1,1,-3,0,1,0
8680,-2,2,-5,-16,-13,9,-3,-2,0
8685,-2,5,0,-4,-1,6,1,-3,0
8690,1,-6,-3,-6,-2,-19,5,2,0
8695,-2,-1,2,1,-5,-7,-2,1,0
8700,1,1,4,-4,-9,-5,1,-5,0
8705,-3,-4,-2,-3,-6,6,1,-3,0
8710,-4,-1,-3,-8,-4,-20,-5,-2,0
8715,3,1,-2,1,8,-9,4,1,0
8720,-6,-4,1,-9,-2,3,1,-4,0
8725,-4,-6,5,2,-1,4,-3,-4,0
8730,4,1,-2,2,1,-9,-2,1,0
8735,1,-2,-4,3,3,6,26,-4,0
8740,3,2,1,5,6,27,108,-2,0
8745,-3,-3,-3,-2,-3,3,116,-4,0
8750,-3,-4,-2,-6,-6,-14,124,-4,0
8755,3,-1,5,-6,-13,19,33,1,0
8760,-3,-3,-8,5,2,17,-70,1,0
8765,-3,-5,0,2,-4,4,-106,3,0
8770,1,-2,-4,-2,0,80,78,-4,0
8775,2,-1,-2,-2,-4,12,63,2,0
8780,0,-2,2,5,12,-119,-11,-3,0
8785,-3,4,-7,-3,4,-32,-115,-3,0
8790,-6,-3,-4,1,3,-22,10,-4,0
8795,-2,3,4,-2,1,18,120,0,0
8800,-5,-6,-2,0,1,-128,15,1,0
8805,-2,-6,1,17,6,-128,-71,-7,0
8810,-1,-8,-6,12,2,58,16,3,0
8815,-1,14,-4,-37,-14,127,74,-3,0
8820,1,1,3,-8,3,102,-63,-1,0
8825,-10,0,-2,-4,3,36,-52,-5,0
8830,-6,1,-5,17,-4,60,42,3,0
8835,4,-9,-5,11,2,-20,52,4,0
8840,0,-1,3,-9,0,-64,-57,-1,0
8845,3,-10,-4,-12,-1,-128,-69,-8,0
8850,-3,-11,5,-10,-6,-69,8,1,0
8855,-4,-8,0,-1,-1,-39,57,-4,0
8860,-5,7,-9,-8,-9,-58,-57,-1,0
8865,-3,5,-6,4,4,-105,-38,3,0
8870,-1,8,-5,-3,-5,28,36,-2,0
8875,2,-7,2,-2,0,13,43,-3,0
8880,0,-9,-6,-7,1,-128,-46,-2,0
8885,-1,0,0,-3,-2,-119,-35,4,0
8890,2,6,-2,-3,-8,-37,23,2,0
8895,-1,6,3,5,3,20,18,0,0
8900,4,0,2,1,-7,-39,-27,-7,0
8905,-3,-9,4,-3,-6,-128,-17,3,0
8910,1,1,5,-2,3,-44,13,-1,0
8915,3,1,-1,2,2,49,18,3,0
8920,-3,2,-1,-4,-4,18,-18,-1,0
8925,1,0,-5,-2,-1,46,-10,-6,0
8930,-5,-3,-5,-9,0,79,13,-4,0
8935,-3,4,-3,3,-1,67,7,-2,0
8940,-1,-5,-5,-1,-3,23,-19,-1,0
8945,-4,-3,-8,-4,2,49,-12,4,0
8950,-5,-4,1,-5,-5,3,3,1,0
8955,-5,-6,0,3,-3,-8,12,-2,0
8960,2,6,5,10,4,38,-17,0,0
8965,-3,-3,2,2,0,60,-7,-4,0
8970,-4,-4,-5,-4,0,27,14,-6,0
8975,-3,-6,-1,-5,-2,-8,2,0,0
8980,0,-5,-2,1,-4,35,-14,0,0
8985,1,0,-2,2,-2,40,-8,-2,0
8990,7,0,1,2,-4,-10,6,3,0
8995,-2,6,4,4,-3,-90,6,-4,0
9000,1,3,0,8,-3,-48,-11,0,0
9005,-4,0,0,0,-6,0,-1,2,0
9010,-2,3,1,-8,-4,-6,9,-5,0
9015,-1,2,-6,-3,6,-36,9,0,0
9020,-5,-3,-5,-3,0,-19,-5,4,0
9025,-5,0,-2,-2,1,-6,5,-3,0
9030,-4,4,-2,-3,1,-34,6,2,0
9035,3,4,1,-1,-2,-10,3,0,0
9040,-3,1,-2,-1,6,-18,-3,-5,0
9045,-2,-3,-3,-1,3,-15,1,4,0
9050,2,-4,2,3,-1,-3,4,-3,0
9055,2,0,-6,-1,-2,10,4,-3,0
9060,2,-2,-3,5,-3,17,-2,1,0
9065,0,-2,-3,-3,-2,11,-1,-3,0
9070,-1,-3,1,-1,1,-1,9,0,0
9075,-5,-2,4,1,-5,17,0,0,0
9080,2,0,2,-4,-2,4,-4,-5,0
9085,2,-1,-3,-1,-9,-10,7,-3,0
9090,2,6,3,-1,-3,-16,6,-2,0
9095,-2,-6,-3,3,-2,-13,1,-1,0
9100,-1,0,1,-1,-4,8,-4,-1,0
9105,-3,-4,-4,-6,1,63,11,-3,0
9110,-4,-4,-3,-8,2,20,8,-3,0
9115,0,-1,3,-4,-4,-6,0,-1,0
9120,-2,0,-1,7,5,21,0,1,0
9125,0,-2,-4,-1,0,39,10,-5,0
9130,0,-2,-3,-2,-9,2,6,-6,0
9135,-1,-4,5,-2,-4,-7,1,-3,0
9140,-2,-1,-2,-1,6,11,-3,-1,0
9145,-2,0,3,-1,-1,17,7,5,0
9150,-4,0,-8,-3,-1,-5,6,3,0
9155,0,0,0,-2,2,-27,3,-5,0
9160,-3,-3,-2,5,-5,7,0,3,0
9165,-2,-1,-2,0,-4,15,3,0,0
9170,0,-5,-2,1,-2,-16,7,1,0
9175,-1,1,-2,-6,-7,-39,-5,1,0
9180,0,-2,1,-2,-1,-1,-2,-1,0
9185,0,-1,3,-1,0,21,6,1,0
9190,-5,-3,-4,-5,-8,-23,2,2,0
9195,-1,4,0,7,1,-29,-2,2,0
9200,1,-1,-2,-4,-1,-7,1,-3,0
9205,2,-4,-3,-3,-5,-5,7,-2,0
9210,0,1,1,1,5,-9,6,-2,0
9215,-1,-1,-1,2,4,4,2,-5,0
9220,1,2,0,-1,3,11,1,-4,0
9225,-2,-2,-4,-1,2,9,17,1,0
9230,-4,-1,0,-2,4,-3,4,4,0
9235,1,-3,-5,-4,-1,-11,-2,-2,0
9240,-3,-2,-5,-2,5,3,-1,1,0
9245,2,-4,2,-5,0,-2,10,-2,0
9250,0,-5,-4,-3,-3,0,6,0,0
9255,0,1,-1,1,-6,3,0,2,0
9260,-1,2,1,0,-9,2,-1,0,0
9265,-4,1,-2,0,0,2,13,-3,0
9270,2,-2,2,-3,0,-8,7,-4,0
9275,-4,1,1,-2,3,6,-3,-5,0
9280,-2,-4,-3,-1,-2,19,1,2,0
9285,-3,0,-4,1,0,17,15,1,0
9290,-3,-1,-1,-8,-6,-5,3,3,0
9295,-4,1,-4,-2,4,1,-2,1,0
9300,1,-4,1,2,-1,3,2,5,0
9305,-3,-2,1,1,-5,-5,8,-1,0
9310,-1,-8,-3,-5,-6,-9,6,2,0
9315,-3,0,1,4,4,0,-1,5,0
9320,-3,4,-2,-5,-4,-2,2,-3,0
9325,-3,-3,-3,-3,3,-3,8,1,0
9330,-6,0,0,-2,-4,-10,3,1,0
9335,8,1,-3,0,-1,8,-8,-3,0
9340,1,-2,-4,1,0,6,2,-4,0
9345,-1,2,-4,-3,-1,-1,8,2,0
9350,-1,-1,-1,-1,0,-4,3,-3,0
9355,5,-2,-1,-4,0,-11,-9,-1,0
9360,-3,-3,2,0,4,5,2,0,0
9365,-2,0,-5,-4,-6,-10,10,-3,0
9370,7,-2,0,6,4,-1,3,-1,0
9375,-4,-2,0,-7,-8,-4,-7,-2,0
9380,1,-1,1,6,5,9,2,-4,0
9385,-2,-4,2,2,-2,5,8,-4,0
9390,-1,1,3,1,-4,-7,3,-4,0
9395,-2,0,2,-2,-9,-5,-3,0,0
9400,0,4,3,-6,-10,6,1,0,0
9405,-1,-1,-3,-4,-4,-2,8,1,0
9410,-3,-2,-4,-6,-4,-9,3,-2,0
9415,-2,0,-1,4,9,4,-7,-3,0
9420,2,-1,-4,-1,0,12,2,-3,0
9425,-1,-3,0,-3,-2,5,4,1,0
9430,-3,0,-2,0,2,-12,2,-4,0
9435,-4,-2,-2,-7,-2,-11,-5,-1,0
9440,-5,-1,3,5,6,3,1,-2,0
9445,-4,-2,-1,-3,1,28,10,-5,0
9450,-3,-5,1,-7,-6,1,2,-5,0
9455,1,0,0,2,0,-5,-7,-3,0
9460,2,-2,-4,-3,3,0,3,3,0
9465,2,0,2,-3,0,-3,5,1,0
9470,-1,-1,-1,0,-3,-6,1,2,0
9475,2,-5,2,-5,-5,-9,-12,-3,0
9480,2,-1,2,-3,-6,8,1,1,0
9485,0,-3,-4,-1,-6,1,-2,1,0
9490,-1,-4,-1,2,3,-9,-1,-1,0
9495,-3,-4,-4,2,1,-5,-12,2,0
9500,-7,-2,-1,-1,-1,6,2,-2,0
9505,1,-2,-2,-1,1,4,10,-2,0
9510,3,1,0,-2,-2,-12,0,4,0
9515,-4,-5,-2,-1,-6,23,10,-4,0
9520,-2,3,2,-4,-7,11,3,-5,0
9525,0,2,-3,4,1,-7,13,1,0
9530,-1,1,-2,-4,-8,-6,1,-5,0
9535,-2,4,-2,2,0,-18,-1,-6,0
9540,3,-4,-3,-1,9,-6,2,0,0
9545,-3,2,1,-4,-7,-12,10,-2,0
9550,-2,-2,0,-3,3,-18,-1,2,0
9555,4,1,0,1,1,-3,-10,-1,0
9560,-3,2,-5,-2,-7,3,2,2,0
9565,0,-3,3,-3,-6,-7,19,-5,0
9570,-3,-5,-2,3,0,-8,3,-1,0
9575,-3,-4,-3,3,8,1,-6,-1,0
9580,-1,0,-2,-4,-3,-6,2,2,0
9585,1,-5,-1,-3,-1,0,6,2,0
9590,0,0,-2,-1,0,-5,0,-2,0
9595,1,-1,-5,-5,-8,-3,-7,2,0
9600,-2,1,3,1,7,-5,2,-2,0
9605,-4,-3,-2,3,5,-4,7,5,0
9610,-1,-1,-8,-4,2,-5,0,-2,0
9615,1,3,4,2,1,5,-10,-2,0
9620,-4,-4,0,2,1,-3,4,-2,0
9625,-2,-3,1,0,0,-11,12,-5,0
9630,-1,1,-7,0,-2,9,1,4,0
9635,3,3,2,-3,-4,10,-12,4,0
9640,-1,0,-2,0,-5,10,0,1,0
9645,-5,1,0,1,0,-3,19,-2,0
9650,0,-1,-1,-2,-1,-11,2,-1,0
9655,0,-3,-1,-2,-5,-2,-2,-2,0
9660,2,-1,-1,2,-4,2,2,-2,0
9665,4,2,-2,1,-5,4,16,-2,0
9670,2,-6,-1,-1,-3,-5,2,-4,0
9675,1,0,3,-1,-2,4,-14,6,0
9680,1,0,-1,0,2,4,3,-5,0
9685,-3,-5,-2,-3,0,-5,13,-1,0
9690,0,7,4,2,1,5,0,2,0
9695,5,1,0,-2,-3,5,-10,-1,0
9700,4,-3,3,-4,-8,13,1,2,0
9705,-1,-2,-1,-5,4,0,9,0,0
9710,-3,4,-2,1,-3,-9,1,-4,0
9715,-4,-6,0,0,2,-1,-1,-8,0
9720,-2,3,0,0,-6,11,5,-2,0
9725,0,-2,-2,-2,-3,1,18,1,0
9730,2,-6,-1,-5,-1,-20,2,-3,0
9735,2,0,2,2,2,25,-4,-1,0
9740,0,-2,-1,-2,3,9,2,-5,0
9745,-5,-1,-3,4,4,8,16,-3,0
9750,-1,3,2,-1,-1,-2,2,-1,0
9755,-2,4,-3,0,2,-5,-9,0,0
9760,6,-1,4,1,1,5,4,1,0
9765,5,-3,-3,0,0,-4,15,0,0
9770,-7,-4,1,2,-7,-6,1,0,0
9775,-1,-2,-5,3,-3,-6,-12,2,0
9780,-2,1,-2,0,1,-5,2,-3,0
9785,-5,2,-6,-5,-2,-17,27,-3,0
9790,0,1,-5,-4,-2,2,5,-1,0
9795,0,4,2,-4,1,-3,-14,-1,0
9800,-6,-1,-10,-3,5,0,2,0,0
9805,3,2,-2,2,1,-3,8,1,0
9810,-1,-5,0,-7,-6,-10,3,2,0
9815,-3,-1,-1,-4,-6,-6,-13,2,0
9820,-2,-3,-3,-5,-2,6,1,1,0
9825,3,-3,-5,-2,-1,-8,13,-3,0
9830,-1,-2,-1,0,3,-9,4,-2,0
9835,-2,0,3,-1,7,5,-13,2,0
9840,1,1,-1,-1,2,12,2,0,0
9845,-4,-5,0,-1,2,0,17,-4,0
9850,-1,-1,-1,1,0,-12,2,2,0
9855,5,-2,-3,-2,1,-10,-18,-5,0
9860,-1,3,3,1,-5,2,3,2,0
9865,-2,-2,-1,1,1,3,20,-2,0
9870,-1,-5,-3,0,-1,-2,1,-2,0
9875,-3,1,1,0,-5,1,-20,-1,0
9880,-5,0,-1,5,0,12,2,1,0
9885,-4,-4,-2,2,-5,3,25,0,0
9890,0,-1,3,2,-1,-3,4,-1,0
9895,5,-1,-2,-7,-7,10,-25,4,0
9900,-3,-2,-5,-4,-2,2,-1,0,0
9905,-5,-7,0,0,0,0,19,-3,0
9910,-3,-4,-2,-3,-4,-3,4,-5,0
9915,2,1,-5,-4,-5,-1,-34,-2,0
9920,0,0,0,0,5,1,-3,0,0
9925,-4,-2,-10,1,-3,-2,16,2,0
9930,-5,-2,2,-2,0,-12,3,-1,0
9935,2,-2,-6,-4,5,-1,-13,0,0
9940,5,-1,1,-2,-4,-6,1,-1,0
9945,3,1,2,2,5,-5,16,2,0
9950,2,-1,-5,-1,-4,-14,2,-4,0
9955,-1,4,2,-5,-5,-3,-5,1,0
9960,-5,-7,1,1,1,10,0,-2,0
9965,1,-1,-1,-4,2,1,5,1,0
9970,-2,0,-3,-2,2,-7,0,-1,0
9975,-1,-4,-1,0,-1,8,2,-3,0
9980,3,0,-2,-7,-9,11,1,-3,0
9985,1,2,1,-2,-7,14,-8,-2,0
9990,1,1,-2,-5,-5,-1,1,-5,0
9995,-5,-5,2,1,6,-3,-1,1,0
10000,4,1,-2,-3,2,-9,3,-4,0
10005,4,-1,2,-2,0,4,3,5,0
10010,2,7,3,0,0,-9,-1,0,0
10015,-1,-2,0,0,5,-2,5,-1,0
10020,-2,-1,0,0,1,2,0,-3,0
10025,2,1,-3,-2,2,-2,4,-2,0
10030,1,-3,-4,4,11,1,2,0,0
10035,-3,-4,-1,-3,-4,-5,0,-7,0
10040,1,5,1,1,-1,4,1,-2,0
10045,-8,1,-5,-5,-6,-7,9,-6,0
10050,-1,1,0,2,0,12,3,-4,0
10055,-6,-8,-5,-2,1,4,-11,-1,0
10060,2,-6,0,0,3,2,-1,5,0
10065,1,1,4,0,-7,-8,9,-7,0
10070,-4,-1,4,-1,-2,-9,2,1,0
10075,-2,1,-3,3,6,-5,-9,-6,0
10080,0,-4,-3,-1,-3,5,0,2,0
10085,2,1,6,-1,-2,-4,15,-2,0
10090,-3,-3,4,0,5,-9,2,0,0
10095,0,0,1,-4,0,-7,-10,-2,0
10100,-3,2,0,0,2,6,0,-4,0
10105,-5,-4,-6,-2,-1,-12,15,-1,0
10110,-1,0,-4,2,1,1,4,2,0
10115,2,0,-1,2,2,3,-11,-1,0
10120,-7,-5,-3,-8,-3,0,-2,-3,0
10125,1,-4,-1,3,3,4,15,-4,0
10130,-3,-3,1,-2,2,-3,3,-2,0
10135,1,2,0,-1,-7,-2,-9,1,0
10140,-2,1,-3,-4,-5,-4,0,-3,0
10145,-4,1,-2,-1,-4,-2,19,-3,0
10150,1,-6,-9,-2,0,-7,4,-1,0
10155,-2,0,-1,-1,-3,-1,-7,-4,0
10160,-3,4,-3,-1,-4,3,-2,-3,0
10165,4,3,4,0,0,5,-1,3,0
10170,4,0,-6,3,-2,2,3,-1,0
10175,-6,-3,0,-3,1,-3,-11,1,0
10180,1,1,1,0,-4,-5,0,-1,0
10185,-2,0,3,-3,-3,-13,15,-5,0
10190,3,-4,2,-3,-6,3,5,1,0
10195,0,0,-3,0,-1,2,-13,5,0
10200,-1,-7,0,-4,-10,-6,-1,-5,0
10205,-3,-1,-5,2,2,-7,4,3,0
10210,-1,-1,0,-4,-10,-5,3,-4,0
10215,1,3,2,4,-7,8,-2,-2,0
10220,3,1,-1,-2,1,-5,-1,7,0
10225,-1,-5,-6,-1,3,-12,5,2,0
10230,-5,4,-2,1,4,11,5,6,0
10235,-5,-5,0,-1,0,5,-3,-2,0
10240,-2,2,-3,2,0,2,-1,2,0
10245,3,0,-1,0,2,-5,14,-1,0
10250,-3,-4,-3,3,0,-2,4,-2,0
10255,-1,4,-2,-2,-8,14,-10,-1,0
10260,2,-2,0,-2,5,16,-1,2,0
10265,-1,-4,2,-1,-2,-6,1,4,0
10270,-3,-6,4,-3,3,-7,4,-1,0
10275,-4,-2,-2,-4,-1,5,2,0,0
10280,-5,-4,-4,-4,-8,6,0,-2,0
10285,-1,4,-3,-5,-6,0,24,-5,0
10290,-3,-3,-8,-2,3,-10,7,-2,0
10295,-5,-4,-5,0,3,-3,-18,1,0
10300,-3,-3,-4,2,4,-3,-3,-1,0
10305,0,-1,-1,2,2,-7,15,-4,0
10310,-3,-3,1,-3,-1,4,6,0,0
10315,4,-4,-6,-2,-4,3,-10,-3,0
10320,1,2,-5,-5,-2,-5,-2,-4,0
10325,-6,-6,2,-2,-1,-7,14,3,0
10330,-2,-3,-3,-2,-1,-6,7,-2,0
10335,3,1,1,0,0,4,-22,0,0
10340,-2,1,-5,-3,-2,9,-3,-3,0
10345,-3,-5,-5,-4,-3,-2,17,-3,0
10350,-1,3,-3,3,5,-3,5,1,0
10355,2,0,2,-4,-2,1,-14,2,0
10360,-5,-2,-1,0,-3,4,-2,1,0
10365,-2,-5,-1,-4,-3,2,20,-2,0
10370,3,2,-2,-3,4,-1,6,1,0
10375,1,-4,-3,1,-6,14,-18,-2,0
10380,-1,0,-2,-2,-1,0,-5,1,0
10385,-1,1,2,0,1,6,17,-4,0
10390,2,2,-1,-6,-4,-5,8,-5,0
10395,-1,1,4,0,4,-5,-19,-2,0
10400,-4,-5,2,-4,-2,-9,-4,-6,0
10405,-3,-4,-5,-5,4,-12,8,2,0
10410,3,-4,2,1,1,-6,7,0,0
10415,-7,1,-1,0,-1,-12,-9,1,0
10420,4,-4,-4,1,1,12,-4,-1,0
10425,3,1,-4,-4,-4,4,-3,4,0
10430,-5,-4,-2,-4,-6,-12,3,-4,0
10435,3,-3,-2,-1,-2,-2,-10,-2,0
10440,-5,0,-2,-7,-7,1,-2,1,0
10445,-4,-4,-2,2,4,-6,15,-3,0
10450,5,2,-6,-3,-2,-13,5,0,0
10455,-5,-6,-2,-4,-1,4,-4,-1,0
10460,-5,-1,-5,-2,2,3,0,1,0
10465,-3,-4,-1,-1,-7,-1,10,-5,0
10470,-4,-4,-4,-4,-8,-6,5,-3,0
10475,-3,2,-3,2,1,1,6,0,0
10480,0,-3,-1,-5,-6,0,-4,-1,0
10485,-3,-1,0,-4,-5,-7,7,2,0
10490,-3,0,2,4,-4,-10,4,-3,0
10495,-1,0,-1,-1,2,0,12,-3,0
10500,2,-6,-1,0,0,5,0,-1,0
10505,0,0,-2,-4,-6,-2,-4,3,0
10510,-4,0,2,0,-5,-4,2,-3,0
10515,-1,-5,-2,-1,3,8,3,-1,0
10520,0,1,4,-4,-2,-3,3,-5,0
10525,3,5,0,-5,-7,-7,6,-3,0
10530,1,-5,-8,-4,5,-8,5,-1,0
10535,-2,0,-4,1,2,-4,3,3,0
10540,-1,-9,-3,-1,-2,6,-2,-2,0
10545,5,-1,-1,-3,-10,2,1,-2,0
10550,-1,-3,-3,-2,-1,-10,5,-1,0
10555,-3,-2,-1,5,9,2,0,-5,0
10560,-4,2,-3,1,5,-4,-3,-4,0
10565,1,5,2,0,-2,-5,6,-3,0
10570,-1,-1,4,5,-2,4,6,3,0
10575,-2,-5,-6,-8,-3,-1,9,-7,0
10580,1,6,2,-2,-4,2,-2,1,0
10585,-7,-2,-3,-1,0,-4,-2,0,0
10590,0,-1,2,4,3,2,5,5,0
10595,3,3,0,6,-2,-2,-11,2,0
10600,-2,1,0,-4,-2,1,-3,-2,0
10605,2,-5,-10,-3,5,-4,-5,2,0
10610,-1,-1,2,-1,3,5,5,-7,0
10615,-5,2,2,0,-1,6,-5,4,0
10620,-3,1,-4,2,0,0,0,-1,0
10625,-2,-4,1,-6,-2,-14,2,-2,0
10630,0,-4,3,3,2,2,4,3,0
10635,3,1,-9,-4,0,5,6,-4,0
10640,0,0,2,2,2,5,-3,-4,0
10645,-2,-2,2,-2,-1,4,4,1,0
10650,-3,3,-3,-1,4,1,3,4,0
10655,3,2,-1,2,0,5,3,-3,0
10660,-1,-3,-3,3,3,-1,0,0,0
10665,-2,-2,-4,-1,1,-2,3,-4,0
10670,3,1,-6,3,5,2,5,-4,0
10675,-1,2,1,-1,-5,2,2,1,0
10680,-1,-5,-3,-3,-4,4,0,-2,0
10685,0,1,1,0,-2,6,5,-4,0
10690,2,6,-3,-3,-8,-2,2,-4,0
10695,-6,-5,-1,-1,4,0,4,-2,0
10700,1,-4,0,-2,-6,2,0,2,0
10705,-4,-1,1,0,0,-9,1,-3,0
10710,-2,-1,-5,-5,-3,-8,5,2,0
10715,2,-2,0,0,-1,-4,-5,3,0
10720,-2,-6,-3,-6,-2,-4,0,-2,0
10725,0,0,1,-1,-3,-5,7,0,0
10730,-4,1,-1,-5,-7,-9,5,4,0
10735,-4,-6,1,0,3,4,0,-1,0
10740,2,2,-1,2,4,3,-2,2,0
10745,2,-6,-3,-3,-4,0,0,1,0
10750,-2,-1,2,-7,-5,-4,5,-3,0
10755,-2,-1,-2,-3,-8,0,8,-1,0
10760,-3,1,-1,4,1,0,2,6,0
10765,-4,-2,0,1,0,-7,8,-4,0
10770,-4,-7,-6,-2,-3,-4,5,-4,0
10775,-5,-3,-3,-2,-1,0,-6,-3,0
10780,-4,-7,0,2,0,6,0,-2,0
10785,6,-2,2,0,0,-8,10,-2,0
10790,-4,-2,-4,-4,-5,-8,5,-7,0
10795,3,4,0,-4,0,8,-5,-1,0
10800,1,-2,-2,-5,-1,9,-2,2,0
10805,-4,2,-1,0,3,-2,8,1,0
10810,-6,-8,-1,0,3,-6,6,-4,0
10815,1,-4,1,-1,-4,1,-17,1,0
10820,1,0,2,3,-6,3,-2,-5,0
10825,-4,-4,-2,-1,3,-8,14,1,0
10830,5,-1,1,-6,-3,-2,7,-3,0
10835,3,1,-3,1,1,7,-14,1,0
10840,-1,0,-3,-2,1,2,-3,-4,0
10845,-4,-5,-3,-1,-5,-3,8,-1,0
10850,-1,1,-7,0,-7,-2,5,2,0
10855,-4,-3,-1,2,1,1,-7,3,0
10860,1,0,-3,0,-2,-2,-1,2,0
10865,0,-1,-6,-2,0,-19,11,-2,0
10870,-1,1,1,2,4,-3,4,2,0
10875,4,1,-4,-3,-1,9,-1,0,0
10880,-3,1,-4,1,-2,-3,-1,-1,0
10885,-4,-5,-6,-1,2,-5,8,-1,0
10890,2,-4,-4,0,1,-10,2,-2,0
10895,0,6,1,-2,2,1,-7,-5,0
10900,-2,0,1,2,9,5,0,-2,0
10905,0,-4,-7,-3,-3,-5,4,-4,0
10910,-2,-4,-4,-9,0,3,5,-3,0
10915,-2,4,6,3,6,5,-7,4,0
10920,-5,-5,-1,-3,0,-6,1,5,0
10925,-1,0,-3,-2,0,-3,3,5,0
10930,-2,1,-1,6,0,-1,4,5,0
10935,3,-2,-1,1,0,9,2,0,0
10940,-1,-2,0,-5,-2,0,-1,1,0
10945,3,-1,4,-4,-2,-3,10,-6,0
10950,0,2,1,0,-8,-2,-1,-2,0
10955,-2,0,-2,-6,-5,2,0,-1,0
10960,0,2,3,2,-1,1,3,2,0
10965,-8,1,2,-3,-7,2,2,-2,0
10970,2,1,1,1,0,0,0,-4,0
10975,1,-4,1,0,1,2,2,-6,0
10980,2,-2,0,-1,0,-5,5,-4,0
10985,-1,2,1,-3,-4,-15,4,-4,0
10990,-3,-2,-1,1,4,-7,-2,0,0
10995,-6,0,-3,-2,-1,3,-2,1,0
11000,-5,-6,-1,-2,5,-1,1,-2,0
11005,-2,-1,-3,0,-3,-17,2,4,0
11010,-4,0,-2,-4,-6,10,1,-5,0
11015,0,-1,-2,0,0,3,4,-3,0
11020,-2,-3,-4,-3,-2,2,2,-1,0
11025,-5,1,-1,3,0,-5,-2,1,0
11030,0,-1,0,4,10,-9,1,2,0
11035,-3,-2,1,1,2,0,3,-6,0
11040,-1,-1,-7,-5,0,-2,3,-3,0
11045,1,-2,3,-4,-2,-11,4,-4,0
11050,-3,-2,4,-3,-2,8,0,3,0
11055,0,-1,-5,3,6,22,3,-3,0
11060,1,2,3,-1,-4,0,8,-3,0
11065,-4,0,-9,-1,0,-2,-3,0,0
11070,-1,-3,4,-8,-4,-5,1,-1,0
11075,0,-5,-5,-3,3,0,5,1,0
11080,0,3,2,5,8,-4,4,2,0
11085,-4,-7,-3,-1,1,-1,-3,-1,0
11090,-1,2,-2,-2,-5,1,0,-4,0
11095,4,0,-3,2,-7,2,-4,3,0
11100,-1,1,-4,1,0,4,1,-3,0
11105,5,1,0,1,-3,2,0,1,0
11110,-1,2,-3,0,2,-1,0,-6,0
11115,-1,-3,1,-2,2,-8,-7,-4,0
11120,2,0,1,1,-4,-15,3,-3,0
11125,-3,0,1,1,2,-11,5,-5,0
11130,0,-2,-5,-9,-10,2,2,-6,0
11135,0,1,3,0,-3,1,3,-2,0
11140,-4,-4,-3,-3,-4,0,2,3,0
11145,-6,-5,-2,0,1,-2,1,-2,0
11150,2,-3,-3,-1,-1,-5,-1,2,0
11155,-2,-4,-6,-2,-2,3,0,-3,0
11160,0,-7,-2,-3,-5,-3,5,-5,0
11165,-1,-1,1,-4,0,-9,7,-2,0
11170,-2,-1,-1,1,-5,-8,0,-2,0
11175,-2,1,3,1,-3,13,5,-3,0
11180,-2,-3,-2,-1,-5,-4,8,-1,0
11185,4,-3,-5,-1,-1,0,2,-2,0
11190,-3,-3,-2,-1,2,-3,-4,0,0
11195,1,1,-3,4,6,3,1,1,0
11200,-4,-4,-2,-4,-1,1,3,1,0
11205,-4,-5,-2,-3,-4,-10,6,1,0
11210,1,-3,-3,0,-5,0,2,3,0
11215,7,1,-3,3,0,8,-3,0,0
11220,-3,0,1,-2,-1,-1,4,-2,0
11225,-1,-2,3,-6,-4,3,2,-2,0
11230,0,-3,1,2,5,0,0,-1,0
11235,-9,2,3,-4,0,6,-2,0,0
11240,2,3,4,5,4,3,8,-3,0
11245,-4,2,-3,-3,0,-9,6,-1,0
11250,1,0,-5,-4,-5,-1,3,-2,0
11255,0,0,2,-3,-5,6,-9,2,0
11260,1,0,-1,0,0,-2,0,0,0
11265,0,-8,-4,-3,-5,-10,14,-3,0
11270,-3,2,0,-4,-5,-2,2,0,0
11275,3,2,-4,-2,-2,11,-4,2,0
11280,-5,-1,-2,-1,0,7,-2,6,0
11285,-2,1,0,1,2,-8,5,4,0
11290,-1,-2,-1,1,3,-7,2,2,0
11295,-4,1,2,-2,0,7,-9,-2,0
11300,1,1,-1,-3,-7,3,4,-1,0
11305,1,-4,-2,-2,-4,-6,13,-5,0
11310,0,2,4,0,2,-2,4,-4,0
11315,-2,-3,-3,-1,-5,8,-3,-7,0
11320,1,-4,-1,-2,3,6,-2,1,0
11325,3,-2,-4,-4,5,-12,8,0,0
11330,3,-1,1,2,-1,-4,-1,-2,0
11335,1,-4,-2,0,0,11,-4,-3,0
11340,-1,-3,-2,0,-3,-1,2,-3,0
11345,0,-1,2,4,6,-8,6,0,0
11350,1,-6,-3,-2,-4,-11,3,-1,0
11355,0,1,7,-2,-5,4,-6,7,0
11360,-2,5,3,-4,-3,-2,2,-4,0
11365,-6,-5,1,-2,3,-6,9,0,0
11370,-4,2,-2,0,6,-2,-1,-4,0
11375,-1,3,-2,-1,-1,-3,-5,1,0
11380,0,2,2,2,-1,0,2,2,0
11385,-1,-2,0,-2,-2,-3,6,3,0
11390,-2,-3,-6,-2,-2,-5,2,-1,0
11395,-2,-2,-4,1,2,4,-4,0,0
11400,-4,0,-1,-5,8,5,1,-2,0
11405,2,0,-3,-1,-7,-6,4,3,0
11410,-1,-5,-4,1,-1,7,2,4,0
11415,1,-3,1,-2,-2,5,-4,-1,0
11420,-1,-2,-6,-5,-2,4,4,-7,0
11425,-5,-8,2,4,-1,-7,6,-2,0
11430,0,3,2,1,4,0,-1,-2,0
11435,-4,1,-4,-5,-8,-3,-3,1,0
11440,-1,-2,3,1,-1,2,1,1,0
11445,0,1,1,-6,-4,-5,4,-5,0
11450,-4,-2,0,-1,0,-1,-2,-1,0
11455,0,2,5,0,6,18,-2,-5,0
11460,0,-2,-3,1,0,2,4,-2,0
11465,1,-1,1,3,0,-6,4,2,0
11470,-5,0,3,-2,-3,4,-1,-4,0
11475,1,-1,-2,1,2,2,-1,-2,0
11480,-1,-5,-2,-3,-1,-2,2,0,0
11485,-4,-1,3,-1,-2,-7,4,1,0
11490,-5,-3,1,-11,-5,4,-2,4,0
11495,0,-2,-1,-1,0,5,-3,1,0
11500,3,2,-1,1,-2,-4,3,-3,0
11505,-1,0,3,3,3,-10,3,-8,0
11510,0,-3,-5,-1,-1,3,-3,-1,0
11515,-3,0,2,0,2,6,-1,1,0
11520,-3,-5,-1,-3,3,2,6,2,0
11525,-2,-1,-3,-3,-2,-2,3,-1,0
11530,-1,-1,-1,-2,-2,-7,0,0,0
11535,4,-1,-2,-1,-2,6,-1,-4,0
11540,0,0,-1,2,-6,-3,4,-4,0
11545,-4,-5,-4,1,6,-1,3,4,0
11550,1,5,0,1,-1,-5,-3,1,0
11555,3,0,1,4,9,-4,-2,-5,0
11560,-1,1,1,0,6,-3,3,2,0
11565,-2,-2,-5,-7,-10,-11,3,-1,0
11570,-2,-2,-1,0,3,7,4,-1,0
11575,-5,0,2,0,1,3,0,0,0
11580,-1,-3,-2,-2,-4,-12,10,1,0
11585,-2,4,-2,1,9,-10,6,-5,0
11590,-4,0,-1,0,0,2,-2,-3,0
11595,-3,-2,-2,-6,-4,2,0,1,0
11600,-1,-10,-3,-3,-2,-6,13,-3,0
11605,-1,2,-6,-5,5,-4,2,3,0
11610,0,0,2,0,-2,1,2,-5,0
11615,-3,3,-4,-4,1,-4,1,2,0
11620,-3,-3,-1,-2,-6,-5,7,1,0
11625,0,1,-1,-1,-3,-13,6,1,0
11630,-2,-4,-2,0,-4,-2,-2,-5,0
11635,1,-2,1,-3,0,9,1,3,0
11640,-2,1,-1,-3,0,-2,3,-6,0
11645,-3,-5,-3,-3,-3,4,3,2,0
11650,1,4,2,1,1,10,-4,2,0
11655,-2,-3,-7,-1,-3,2,-2,-1,0
11660,-5,-2,-3,0,4,-5,20,-4,0
11665,-6,-2,-3,-1,-5,-8,4,1,0
11670,0,-6,1,-4,-4,-6,0,-1,0
11675,-2,-1,0,-6,2,3,4,-4,0
11680,1,-1,-1,-3,0,-12,3,-1,0
11685,-3,-10,-8,0,2,-6,4,1,0
11690,0,0,5,4,-2,-3,-4,0,0
11695,1,-3,-1,1,0,13,-2,-4,0
11700,-8,-5,4,0,-4,-3,8,3,0
11705,3,-3,0,-8,-6,-2,2,-2,0
11710,2,2,-1,0,-1,-1,-3,-1,0
11715,0,-4,3,-3,-5,5,2,-4,0
11720,-2,1,-4,-3,-3,-5,14,0,0
11725,-1,2,-1,-3,-8,-14,6,-4,0
11730,1,0,3,-5,3,-5,-11,-1,0
11735,-1,-3,-2,1,-5,6,0,-6,0
11740,1,-1,-4,-3,-1,-2,11,-6,0
11745,0,-2,-3,3,0,-11,2,-9,0
11750,-1,-2,-3,-3,-1,5,-1,4,0
11755,1,0,-1,1,-2,5,-2,1,0
11760,2,1,3,-3,2,-4,9,0,0
11765,-2,9,2,3,-4,-5,5,-4,0
11770,0,0,-3,1,-1,9,-5,-3,0
11775,2,1,-4,-3,-3,1,2,-3,0
11780,-3,-6,-2,-1,-2,9,14,-1,0
11785,0,-9,2,-4,-4,-10,3,0,0
11790,2,-5,0,-3,-3,4,-9,-3,0
11795,-5,-3,2,0,-3,13,-1,2,0
11800,-3,-2,-4,3,2,-6,7,2,0
11805,1,0,1,1,0,-9,3,-3,0
11810,0,2,-2,-6,-4,4,-8,3,0
11815,2,-1,3,-2,-6,10,0,-3,0
11820,1,-2,-1,-2,0,-3,12,-1,0
11825,-5,-5,-6,-1,1,-3,4,2,0
11830,-1,2,-1,-3,-2,-1,-7,-2,0
11835,6,2,1,-1,-8,6,1,-1,0
11840,-4,-5,-3,-2,0,-15,24,-3,0
11845,-3,5,3,-2,-5,-8,4,-2,0
11850,-3,1,3,-1,2,13,-11,0,0
11855,-5,1,-6,-4,1,0,-1,1,0
11860,-4,-5,-2,0,0,-12,8,0,0
11865,2,2,4,-1,0,-10,4,0,0
11870,1,6,-1,1,2,0,-10,4,0
11875,-4,-4,-3,-2,-1,-2,2,0,0
11880,0,1,2,0,0,-10,7,-3,0
11885,0,-8,-7,-7,-3,-1,3,-2,0
11890,-3,3,0,0,-3,1,-4,0,0
11895,-2,0,-1,-3,3,-5,3,-2,0
11900,1,-2,-3,2,-1,-10,2,-4,0
11905,3,-10,-3,-2,-4,-3,0,-1,0
11910,-2,-3,-1,1,-4,2,0,-8,0
11915,-3,-6,-1,-9,-1,-2,3,2,0
11920,1,0,-3,-2,-4,-5,0,4,0
11925,0,-3,-3,-2,0,-6,-1,-2,0
11930,0,-2,-3,-1,4,-2,4,-6,0
11935,0,5,-2,2,7,8,5,0,0
11940,-5,-3,-4,-5,-5,0,-3,-2,0
11945,3,3,-2,6,9,-4,0,-4,0
11950,1,-4,-4,4,5,7,-7,-2,0
11955,-4,-2,-4,4,2,15,2,0,0
11960,1,-4,2,-2,2,11,-2,0,0
11965,3,4,1,1,-7,-7,0,0,0
11970,-1,-8,-5,-3,-5,0,-9,-1,0
11975,2,-5,-3,-3,2,4,1,-4,0
11980,-5,-3,-2,-2,-6,-7,18,-5,0
11985,-2,-6,-1,-7,-5,-10,1,-5,0
11990,0,-1,2,1,-1,6,-9,-2,0
11995,-1,0,-5,-4,-6,7,3,-3,0
12000,0,3,-3,-2,-3,-7,14,0,0
12005,-4,-2,0,-4,0,3,0,0,0
12010,4,-4,4,1,3,-10,-10,-4,0
12015,-2,-3,-2,1,-2,8,1,-5,0
12020,0,-3,1,-2,-4,-5,13,-1,0
12025,-1,-6,-6,-3,0,-10,0,-6,0
12030,-1,-1,-1,-2,0,15,-3,1,0
12035,-4,2,-2,-2,-2,1,1,0,0
12040,-1,-7,-2,-5,-5,-15,12,-3,0
12045,2,-1,-1,0,0,-7,3,-3,0
12050,-4,2,-3,-3,0,7,-3,-5,0
12055,0,-4,1,-2,-6,-23,1,-2,0
12060,0,2,-5,-3,-5,-20,16,1,0
12065,-8,-4,-1,-4,-3,-5,-1,0,0
12070,1,-1,0,-1,-1,3,-5,-4,0
12075,-3,5,6,1,0,10,4,-3,0
12080,-4,-3,1,4,5,-1,7,2,0
12085,-5,-3,-5,-6,-5,0,1,2,0
12090,-2,4,-1,-8,-6,6,-10,0,0
12095,-2,-2,3,-4,-8,11,2,-1,0
12100,0,-7,-2,-2,-2,-3,18,-1,0
12105,2,0,4,0,-4,-2,1,3,0
12110,-3,-4,-2,0,1,9,-15,0,0
12115,-1,-3,-4,0,-2,7,2,3,0
12120,-4,-10,-5,-3,-3,-13,33,-2,0
12125,-2,-3,1,1,-5,-13,3,-2,0
12130,2,-3,-6,-4,-4,8,-14,2,0
12135,2,-1,-1,0,2,8,1,4,0
12140,-5,-1,-3,0,2,2,10,1,0
12145,0,-1,1,5,11,-1,2,-1,0
12150,0,5,2,-1,-5,1,-12,2,0
12155,1,-3,-1,0,-1,7,2,-5,0
12160,1,-3,-7,-4,-1,1,11,1,0
12165,-9,-4,-3,-6,-12,-10,3,-5,0
12170,-3,-4,1,2,0,0,-16,0,0
12175,0,1,-1,0,-2,4,1,2,0
12180,-3,-3,-4,-1,2,2,26,-3,0
12185,-2,6,1,0,-1,-3,0,-1,0
12190,-1,-3,-6,-5,-4,-1,-17,4,0
12195,2,-4,0,1,2,11,5,0,0
12200,-4,2,-3,-1,1,3,10,-1,0
12205,5,2,0,2,2,-3,3,2,0
12210,2,-2,0,-3,-2,-4,-11,1,0
12215,-3,-3,-3,1,4,-3,-1,2,0
12220,-2,1,-6,-2,-6,-3,17,1,0
12225,0,0,-2,-2,-4,-6,3,1,0
12230,0,3,0,1,2,4,-16,-1,0
12235,3,2,1,2,2,-1,1,0,0
12240,1,6,3,-1,-4,-10,22,-1,0
12245,1,-8,-4,2,9,-12,4,2,0
12250,0,6,1,-1,-11,1,-26,-1,0
12255,-2,-8,-6,-6,1,6,1,-1,0
12260,-3,-2,1,-3,-4,11,15,-2,0
12265,-4,-1,-2,0,0,-11,0,-2,0
12270,2,1,1,-4,-4,-1,-22,3,0
12275,-3,-2,-2,-3,-6,-3,0,-2,0
12280,3,-6,-2,0,-3,-2,20,-4,0
12285,-2,-2,-3,0,-4,5,2,-1,0
12290,0,1,1,3,4,12,-23,0,0
12295,-3,1,1,-6,-6,12,2,-1,0
12300,-3,0,-2,-2,-3,23,23,2,0
12305,-2,0,-3,0,-4,0,2,-1,0
12310,4,1,-3,1,-4,31,-17,-2,0
12315,-2,2,2,-3,-3,38,-1,5,0
12320,-6,-5,0,-4,-4,-27,35,-1,0
12325,1,-4,-4,-4,-4,-23,4,-3,0
12330,-3,-7,-6,9,10,87,-37,-2,0
12335,-2,-9,-4,-1,-8,28,-3,-4,0
12340,-1,-4,0,-25,-22,-46,49,-1,0
12345,2,6,-1,1,0,-20,-40,-2,0
12350,3,-3,3,3,1,7,-94,3,0
12355,-2,-9,-2,-17,-17,-15,37,-5,0
12360,4,-13,3,32,29,-12,-82,-4,0
12365,4,12,1,-15,-1,-44,-78,5,0
12370,-3,-1,0,18,15,68,1,-1,0
12375,0,-2,1,-14,4,46,58,1,0
12380,-6,-3,-8,-1,-17,-86,51,5,0
12385,0,-3,-3,10,4,7,-66,-7,0
12390,-3,1,-3,-21,22,120,-36,3,0
12395,0,3,3,-3,-17,5,51,4,0
12400,5,27,-1,6,6,-81,20,3,0
12405,0,-17,-4,22,-2,-23,-76,0,0
12410,-6,-4,-6,-14,-15,65,-16,2,0
12415,-4,-16,7,-11,1,33,74,-4,0
12420,0,-8,9,-10,-3,-34,-2,-15,0
12425,-3,10,3,-1,-4,-27,-53,-8,0
12430,3,0,-2,4,-14,-4,18,-15,0
12435,-2,-1,-5,5,-10,-33,40,-2,0
12440,4,-12,-4,10,-4,-79,-19,5,0
12445,-4,-9,5,-6,-5,-22,-41,7,0
12450,-3,-2,-2,15,16,55,7,1,0
12455,1,15,-1,24,6,47,19,-9,0
12460,-5,11,-1,18,6,-26,-9,-4,0
12465,3,-3,-1,-1,-9,-22,-6,0,0
12470,-1,-7,3,22,22,47,9,-5,0
12475,-3,5,-4,-1,-8,-10,16,-4,0
12480,-1,2,1,1,14,51,9,-2,0
12485,2,-9,-3,-11,4,-28,-17,2,0
12490,-6,-2,-3,-12,-6,1,-7,5,0
12495,-5,-8,-5,-3,19,32,13,6,0
12500,-1,0,1,-14,3,-36,-4,3,0
12505,-2,4,4,-17,-11,-22,-22,2,0
12510,7,1,-1,5,-14,42,-6,-4,0
12515,9,4,-1,16,13,44,18,-13,0
12520,-5,28,-4,9,-16,-72,-5,-3,0
12525,0,-25,5,13,6,-2,-11,3,0
12530,1,7,-8,-19,-6,16,7,4,0
12535,-9,-6,2,-9,-3,11,9,3,0
12540,1,-10,-1,-5,11,14,-6,6,0
12545,-5,7,-1,7,-7,-22,-7,1,0
12550,2,-6,1,4,-11,14,-7,1,0
12555,1,8,-2,-8,-4,11,-6,-4,0
12560,0,-11,-3,-37,-37,-56,-6,9,0
12565,2,3,-1,-3,-7,-13,-9,23,0
12570,0,-12,4,-6,-1,12,2,63,0
12575,-1,2,0,7,7,25,2,36,0
12580,1,-11,-2,5,0,5,-2,68,0
12585,2,8,-6,-7,2,-15,-10,113,0
12590,-12,15,-1,-18,-16,8,-3,95,0
12595,1,-34,4,-10,-5,-1,-5,-21,0
12600,-3,10,-3,-4,9,38,2,-6,0
12605,3,-7,-5,-18,7,2,-4,78,0
12610,3,2,-5,9,4,15,-6,-12,0
12615,-3,20,-4,12,-6,-11,4,-49,0
12620,2,16,0,-3,-7,127,6,12,0
12625,-5,3,-6,0,13,28,5,67,0
12630,-4,-16,4,-10,-10,-21,9,-24,0
12635,-12,-17,-2,9,-8,-2,-7,-63,0
12640,-1,-16,-1,21,1,-75,-2,-128,0
12645,-1,17,-4,4,-2,7,17,-98,0
12650,4,13,0,-4,-9,-128,10,2,0
12655,7,3,3,6,-4,-99,5,-88,0
12660,1,3,0,-2,-5,38,0,45,0
12665,-1,-13,-2,-15,-8,76,-14,72,0
12670,-3,-12,-2,-16,-7,-41,-10,-46,0
12675,4,23,-1,-21,3,-45,-6,-27,0
12680,-7,0,-4,-3,18,17,-1,36,0
12685,-6,-3,2,0,-4,68,-16,35,0
12690,-3,-11,-4,-14,-10,2,-13,-38,0
12695,-3,-2,-15,-3,-5,-62,-11,-35,0
12700,-1,-13,0,18,-3,5,3,34,0
12705,-6,7,1,9,4,70,-4,43,0
12710,-2,6,-4,3,-1,-17,4,-68,0
12715,2,-8,0,-16,2,-69,9,-39,0
12720,-1,-4,-4,-9,-3,-16,-1,-23,0
12725,6,7,-2,16,-3,46,8,11,0
12730,0,7,5,-12,9,-23,10,43,0
12735,2,-3,-5,-19,-3,-21,-9,31,0
12740,2,25,-6,-9,-7,29,-17,8,0
12745,-2,-8,3,-11,-1,49,3,3,0
12750,5,-7,-3,16,1,0,-14,15,0
12755,1,-28,2,-17,12,-18,-5,80,0
12760,-1,-17,-4,8,6,2,105,6,0
12765,0,6,-8,13,-5,16,-11,-66,0
12770,1,-7,-4,14,-4,-1,-25,-35,0
12775,0,-8,4,8,-6,-22,103,-9,0
12780,0,11,4,-11,-1,-2,59,-60,0
12785,-1,16,10,-6,4,18,42,-87,0
12790,-4,18,1,26,-5,-7,-50,-10,0
12795,-1,11,1,13,8,-19,-124,72,0
12800,-2,-17,-3,-6,-3,-11,-99,47,0
12805,-5,-14,-11,-7,0,8,-95,15,0
12810,-6,-2,-7,-11,-1,-8,-80,45,0
12815,0,-8,0,5,0,-15,-59,21,0
12820,1,-6,5,-5,2,-5,-68,-34,0
12825,2,-10,5,-4,-3,9,-60,50,0
12830,0,-7,0,-3,1,-7,-29,84,0
12835,-9,8,-5,7,-3,-21,-4,13,0
12840,-6,2,3,-5,0,-9,-48,-9,0
12845,-1,2,0,-2,4,2,-29,-10,0
12850,0,0,0,-5,1,2,21,6,0
12855,-2,8,-1,6,-2,-4,-10,-28,0
12860,2,-8,2,0,-8,-1,-35,-35,0
12865,-2,0,-5,3,-2,4,-1,-64,0
12870,0,6,0,-7,-5,-2,15,-23,0
12875,4,14,-3,-1,-3,-3,-10,19,0
12880,2,4,0,-2,-9,-3,-20,40,0
12885,-1,-8,5,3,2,3,9,-15,0
12890,-4,-11,-2,-6,-2,-1,4,-28,0
12895,-1,1,1,-4,-1,-4,-8,18,0
12900,-1,-1,-2,-5,1,-1,-2,36,0
12905,-1,8,-5,2,2,7,-2,13,0
12910,-2,-1,-4,0,0,8,-1,8,0
12915,-2,-1,0,3,-3,-8,1,114,0
12920,-4,5,-2,11,3,-3,-3,58,0
12925,1,6,3,12,-6,-31,-114,-80,0
12930,-3,-2,0,-16,3,5,-119,-73,0
12935,2,-12,-5,-21,6,-2,13,-74,0
12940,-6,-9,0,0,-14,-7,65,86,0
12945,-5,14,-7,1,6,12,-80,114,0
12950,0,-10,6,16,-3,2,-88,-42,0
12955,-1,7,-5,-22,-17,-2,-87,-75,0
12960,4,-9,-2,-13,3,12,14,-120,0
12965,-3,-6,2,-13,-11,15,127,59,0
12970,-1,1,9,7,-2,-4,127,13,0
12975,0,-6,3,12,3,0,124,-52,0
12980,-6,-6,2,3,-4,-13,34,-4,0
12985,0,-3,3,-3,-1,-6,41,40,0
12990,1,3,-4,-7,-1,-9,37,16,0
12995,-1,1,-1,4,-4,-10,9,-35,0
13000,-1,-1,-5,2,-2,-2,-7,29,0
13005,4,-5,-4,0,2,1,-1,39,0
13010,1,1,0,-10,-8,-11,38,-5,0
13015,-3,2,0,5,-7,0,8,-59,0
13020,6,9,-3,3,0,0,-9,58,0
13025,-3,-4,-4,-6,0,7,56,53,0
13030,3,-3,-2,-7,-4,2,42,15,0
13035,-4,-3,-4,6,-5,1,14,-41,0
13040,-1,-2,5,7,0,-1,-9,-58,0
13045,-3,-8,3,3,-3,-7,7,32,0
13050,-2,-2,0,0,-5,-8,9,36,0
13055,1,-2,0,6,2,-7,-7,-20,0
13060,-2,0,-2,-6,-5,-3,-16,88,0
13065,-2,3,-8,0,-3,6,-3,31,0
13070,3,4,-6,-17,-1,0,-7,38,0
13075,1,-1,1,-4,-1,-1,-6,-13,0
13080,-2,-3,0,-12,-1,8,-15,61,0
13085,-2,-7,4,-9,4,13,-7,10,0
13090,-2,-5,2,9,5,11,-6,-9,0
13095,-3,3,-5,1,-3,114,-7,-4,0
13100,-4,2,-4,-1,4,-35,2,41,0
13105,-2,6,-1,-5,5,-51,-99,24,0
13110,5,8,2,-10,2,-2,12,-29,0
13115,1,4,-2,19,27,-4,22,23,0
13120,-2,-6,6,1,0,28,-19,-128,0
13125,-3,-7,1,5,19,-28,-15,-128,0
13130,-5,-4,0,-1,-2,27,-75,-73,0
13135,-5,-2,1,-12,-7,73,-10,44,0
13140,-9,-5,-6,-15,-16,88,-108,14,0
13145,6,-3,-1,9,-3,3,-62,-36,0
13150,1,1,-1,41,26,104,-13,33,0
13155,-1,-2,6,20,10,83,24,110,0
13160,-2,-5,-2,11,10,19,2,29,0
13165,0,-2,-2,-1,-11,-38,4,-49,0
13170,-6,1,-6,-9,-11,28,23,22,0
13175,-5,-5,-2,-17,-13,-24,71,91,0
13180,-1,-1,4,-3,11,-27,24,-8,0
13185,5,5,-1,5,3,-19,51,-54,0
13190,-7,-2,-2,-13,-7,24,68,24,0
13195,-2,5,-3,-5,0,-3,30,51,0
13200,3,-4,-5,-5,-15,-19,-17,-36,0
13205,-4,-6,1,-3,0,2,32,-35,0
13210,-1,3,6,21,22,90,24,19,0
13215,3,-4,2,-14,-13,-8,-21,24,0
13220,-5,0,-4,11,11,63,-94,-15,0
13225,4,-3,-6,-4,-9,-68,-14,-12,0
13230,3,3,2,11,-2,64,-19,9,0
13235,1,2,1,1,-9,48,33,7,0
13240,4,-7,-1,-37,-28,-46,-43,-2,0
13245,1,-3,4,3,-1,28,-70,-14,0
13250,-7,-6,-5,10,8,9,-26,1,0
13255,0,1,2,-9,-20,31,7,15,0
13260,5,-3,-2,-22,-16,27,-37,-4,0
13265,-3,4,-3,-3,-4,26,-38,-15,0
13270,-4,-1,0,4,-4,-18,6,-3,0
13275,0,0,-1,15,16,33,18,10,0
13280,6,2,-4,23,12,-26,14,-1,0
13285,8,-1,-2,-22,-31,-30,-36,-12,0
13290,4,6,0,-30,-20,-67,26,5,0
13295,-7,-3,2,19,30,58,35,13,0
13300,-4,-3,0,12,14,-9,-35,-5,0
13305,-3,-3,2,15,8,76,-98,-11,0
13310,5,1,1,21,14,75,-99,6,0
13315,-3,-6,-3,-11,-9,48,-88,5,0
13320,3,0,1,2,-3,-72,-10,-4,0
13325,-3,-7,1,3,3,-58,18,-1,0
13330,-1,-6,4,7,1,23,-16,-1,0
13335,0,6,-6,28,-2,2,-74,-65,0
13340,6,-23,-3,33,13,56,5,14,0
13345,0,-15,4,-15,-12,23,24,91,0
13350,-8,2,0,-30,-9,-29,1,-96,0
13355,4,16,1,-21,-3,-19,-65,-62,0
13360,1,31,-2,3,3,45,26,36,0
13365,4,0,8,2,-1,74,45,65,0
13370,9,-4,-1,-4,8,-20,-29,-19,0
13375,3,4,-6,2,10,-73,-19,-74,0
13380,3,-2,-14,-10,12,7,83,41,0
13385,-3,1,-7,-21,20,127,127,85,0
13390,0,-3,-7,33,-4,-10,91,112,0
13395,-10,-32,2,-5,-10,-63,-14,44,0
13400,-11,-21,1,-78,-18,1,-50,-8,0
13405,-4,31,-4,41,-14,11,-116,-17,0
13410,-3,36,0,47,-10,-29,-115,-14,0
13415,6,24,-16,55,4,-30,-107,8,0
13420,-7,14,13,7,2,18,-73,-35,0
13425,-7,-16,4,-1,-9,2,-74,-65,0
13430,3,-5,2,-28,-5,-35,-65,-55,0
13435,-1,5,3,-10,6,-32,-56,18,0
13440,2,-1,8,-8,5,2,-31,-8,0
13445,-1,1,-4,-6,4,51,-21,-55,0
13450,0,-3,-3,29,-1,38,-31,24,0
13455,-1,-11,-1,-68,-9,53,-31,56,0
13460,7,-5,4,-67,-5,43,1,-8,0
13465,6,9,1,-34,-2,3,-9,-37,0
13470,4,-1,4,-2,-3,3,-18,24,0
13475,15,-6,11,-9,0,-6,-12,29,0
13480,0,39,-6,22,-8,-16,7,-17,0
13485,-7,-17,-6,24,-2,-6,-2,-6,0
13490,-5,-23,-7,-23,-7,-18,-12,24,0
13495,-7,-6,-4,28,-9,-38,-63,18,0
13500,-9,-15,-19,51,4,-11,20,6,0
13505,-7,-6,-13,18,1,-4,2,1,0
13510,0,-20,-6,-12,11,-26,-106,-20,0
13515,-3,-13,15,23,2,-26,-48,-13,0
13520,-3,-1,-2,24,-2,-15,46,11,0
13525,0,-5,8,-8,-3,-15,96,-8,0
13530,4,-5,6,2,-3,-11,69,-15,0
13535,14,11,3,-35,4,4,-80,8,0
13540,3,12,4,-6,-1,55,-128,-6,0
13545,-5,4,-4,4,7,39,81,4,0
13550,0,9,-5,-46,0,14,-67,7,0
13555,-7,-24,9,-7,10,-2,44,44,0
13560,2,8,-5,17,2,-4,-7,71,0
13565,5,5,2,-5,7,-5,-127,57,0
13570,-4,3,0,4,-11,-2,-120,59,0
13575,-1,-3,-16,28,-2,0,12,-28,0
13580,-12,-25,-3,12,-7,-34,-124,-45,0
13585,-8,4,5,-11,-10,-16,-128,24,0
13590,-1,4,2,-12,-2,-14,127,-86,0
13595,-2,-7,-9,10,-2,-3,82,-110,0
13600,3,-16,1,11,-1,4,127,-128,0
13605,2,15,-7,13,-1,10,65,-65,0
13610,2,3,4,-3,-6,8,46,-47,0
13615,3,1,6,-16,-8,2,54,-74,0
13620,-2,3,2,-14,6,9,30,14,0
13625,-3,-12,-2,-4,10,13,32,65,0
13630,1,6,2,1,1,2,1,117,0
13635,-2,10,-6,5,4,-1,28,-65,0
13640,-2,-3,-1,3,3,0,1,89,0
13645,-3,-13,4,-8,-1,-8,-19,51,0
13650,2,1,1,5,0,-12,24,-32,0
13655,0,12,-5,7,-4,-7,-30,-25,0
13660,-6,-8,-2,3,0,15,-11,39,0
13665,-6,0,-1,-12,-4,8,12,55,0
13670,-1,3,-1,-8,-6,-3,-8,-23,0
13675,-1,4,1,-10,-3,4,-2,-39,0
13680,2,-6,-1,-3,10,2,-4,-13,0
13685,-1,-4,-2,4,8,-3,6,-105,0
13690,-5,2,-2,7,0,3,2,30,0
13695,-2,-3,-1,-1,3,1,-6,127,0
13700,-1,-7,0,3,3,-1,21,95,0
13705,-4,-4,0,3,-12,-5,-12,106,0
13710,-2,-3,-1,-3,3,-9,4,-18,0
13715,1,-3,1,2,-5,-1,19,-25,0
13720,-3,2,-1,6,-3,-4,6,-99,0
13725,-4,6,3,-2,0,5,3,-128,0
13730,4,-1,3,1,5,4,14,-92,0
13735,20,12,0,-2,1,-4,11,-7,0
13740,2,33,-25,-40,-1,4,-1,-43,0
13745,5,-22,-3,58,5,-2,-5,-85,0
13750,64,-4,6,6,3,5,12,-92,0
13755,102,-24,6,-31,-5,-9,-6,-54,0
13760,-38,-17,8,0,-8,-2,0,47,0
13765,-39,20,0,1,1,2,4,-119,0
13770,75,-18,-3,14,-6,2,-3,97,0
13775,90,15,-3,-13,6,7,-5,112,0
13780,-39,8,8,-14,2,4,-1,51,0
13785,-110,-5,1,-19,-13,0,3,83,0
13790,42,47,-1,26,2,-19,4,84,0
13795,75,26,-8,25,-2,-19,-3,62,0
13800,-63,6,-9,16,-10,-14,3,23,0
13805,-84,4,4,-27,5,13,2,51,0
13810,-74,-22,9,-5,-13,5,-3,18,0
13815,-79,-19,3,-4,-4,15,-1,127,0
13820,3,37,-6,6,-9,-2,-8,-97,0
13825,42,1,-6,-4,3,-8,-7,-80,0
13830,-23,9,-13,-24,2,-8,4,-111,0
13835,-58,-6,1,11,2,12,11,-106,0
13840,24,-47,18,23,-1,3,-18,0,0
13845,69,-24,7,-10,-8,-7,-12,13,0
13850,-35,22,0,-21,10,-15,-3,19,0
13855,-78,1,2,11,3,-3,5,60,0
13860,64,5,-2,3,4,-14,-20,7,0
13865,73,16,1,3,-6,-7,-12,24,0
13870,-39,-21,6,1,-3,10,7,45,0
13875,-55,11,-1,-3,-2,1,9,-5,0
13880,50,5,5,2,-7,2,-6,-1,0
13885,59,-6,3,-2,-1,-7,-4,3,0
13890,-62,-13,-6,-7,-5,-3,17,6,0
13895,-57,-7,-1,2,-4,-2,18,-7,0
13900,57,-20,7,9,5,-2,-13,-2,0
13905,54,-5,-3,-9,8,5,-14,15,0
13910,-43,-2,1,3,5,16,22,-7,0
13915,-43,2,0,2,0,0,1,-9,0
13920,32,-1,-2,3,-1,2,-4,0,0
13925,41,7,-3,2,2,-2,-4,-9,0
13930,-32,-5,2,-11,-4,-1,4,7,0
13935,-52,-4,-1,-4,-5,-9,-1,7,0
13940,25,-6,4,-2,0,4,-3,2,0
13945,42,-3,-6,-7,-1,0,-3,2,0
13950,-38,-12,-6,4,-3,-2,-1,8,0
13955,-32,0,-4,3,-6,-5,-8,6,0
13960,23,-3,3,2,6,4,3,-6,0
13965,6,3,-3,-3,-6,5,5,-6,0
13970,-7,2,-5,-3,-1,-2,-3,-1,0
13975,-5,-2,-8,-2,1,-4,-7,-2,0
13980,11,-3,2,-3,1,-2,4,-2,0
13985,-10,0,2,2,-1,-1,9,2,0
13990,6,-3,-2,-7,-2,-4,-8,-5,0
13995,21,-3,-2,-1,3,-1,-9,-7,0
14000,-14,0,-4,-4,-9,4,6,-3,0
14005,-22,5,7,0,2,-2,11,2,0
14010,16,2,0,-4,-6,-6,-12,-16,0
14015,12,-2,-12,-4,1,-3,-4,5,0
14020,-14,-2,-3,-20,-4,-9,5,3,0
14025,-24,1,-1,-11,-5,2,3,-2,0
14030,23,-5,4,27,-1,5,-8,-10,0
14035,28,-4,2,12,-1,-8,3,-13,0
14040,-22,-15,3,-1,-4,-6,9,5,0
14045,-22,-2,2,-5,5,-5,-5,6,0
14050,25,-2,3,-6,3,11,-5,-15,0
14055,16,-22,1,9,-4,23,-17,-10,0
14060,-25,6,-9,-6,2,18,6,17,0
14065,-10,-4,2,-1,-6,-12,11,10,0
14070,18,10,-1,1,-1,-19,3,-30,0
14075,19,15,3,-2,-6,-9,14,-97,0
14080,-20,-2,1,15,3,-8,23,30,0
14085,-8,8,3,-1,-4,-2,4,76,0
14090,15,-9,-1,-2,-11,-2,-16,-62,0
14095,11,-10,6,0,-10,2,-7,-60,0
14100,-16,3,-1,-2,7,16,9,43,0
14105,-9,5,0,-4,6,-3,9,53,0
14110,10,0,1,-18,3,-3,-7,-33,0
14115,0,2,-2,-3,-1,-5,-7,86,0
14120,-5,1,-9,9,-7,-3,-5,-77,0
14125,-10,-4,-4,19,-1,2,-22,98,0
14130,10,5,-1,-6,1,-3,-19,-40,0
14135,4,-4,2,-20,3,6,-7,-68,0
14140,-15,3,3,-16,-7,-12,-12,88,0
14145,-12,6,-3,-3,-8,-2,0,34,0
14150,13,9,-3,3,-2,-5,1,-51,0
14155,11,-12,-7,9,5,-1,4,-53,0
14160,-14,-11,-2,16,-1,-19,-2,44,0
14165,-4,-9,4,5,1,-1,-2,7,0
14170,12,-4,-1,2,4,3,4,-14,0
14175,-2,6,-2,-7,0,8,-2,-37,0
14180,-11,7,0,-6,-4,1,-4,41,0
14185,-2,12,-3,1,-4,8,-6,23,0
14190,6,15,-5,1,0,6,-3,-8,0
14195,3,1,-2,-4,9,3,2,-21,0
14200,-6,-6,7,0,0,-3,21,17,0
14205,-4,19,-2,8,-2,-4,12,55,0
14210,1,2,1,-1,1,7,-23,-7,0
14215,6,-3,-1,-6,-5,5,-18,-38,0
14220,-4,3,-3,-1,-5,-1,17,-61,0
14225,-8,-26,-4,0,4,-3,31,-113,0
14230,0,-13,2,7,-3,-5,-25,25,0
14235,3,0,-7,8,-3,-9,-14,53,0
14240,-7,-20,-1,1,-1,-3,87,-54,0
14245,-1,4,-2,-11,-10,-11,-44,-66,0
14250,2,1,1,-5,-1,1,-79,61,0
14255,0,-1,0,-3,0,3,-10,55,0
14260,0,9,2,-5,0,5,38,-37,0
14265,1,11,-7,-8,-2,2,11,-67,0
14270,1,5,0,0,0,8,-42,47,0
14275,3,5,-2,5,7,0,-55,55,0
14280,-7,3,-6,-4,3,0,53,-25,0
14285,4,-16,5,-10,-7,-8,66,-50,0
14290,1,3,-1,-7,-3,2,-70,34,0
14295,0,-6,-8,6,5,-1,-10,45,0
14300,0,-11,-5,8,5,-1,50,-32,0
14305,-4,0,1,4,-7,-8,79,-35,0
14310,0,-9,2,6,4,-2,-48,38,0
14315,-3,-5,1,0,1,-2,-31,18,0
14320,-5,-3,-1,-11,-16,-8,43,-25,0
14325,-1,0,2,-3,-4,-1,16,-19,0
14330,2,-4,0,3,-5,3,-22,23,0
14335,1,-6,1,3,-3,4,-25,15,0
14340,0,-2,-2,1,3,7,6,-17,0
14345,0,5,2,-7,0,-2,2,-15,0
14350,-2,3,2,-12,-4,-4,-8,12,0
14355,-2,2,-1,-5,-2,-5,-90,14,0
14360,-2,2,-2,0,-3,3,7,-7,0
14365,3,5,3,-2,-2,-6,-42,-12,0
14370,0,-5,2,7,5,-2,-2,13,0
14375,-4,9,-6,-3,-7,-6,94,14,0
14380,-4,3,-2,-9,-5,-7,10,-9,0
14385,-2,3,-1,0,-5,2,56,-17,0
14390,2,-2,-1,1,-6,-2,75,-25,0
14395,-2,-11,-3,0,-5,6,-5,-15,0
14400,-1,-3,-5,3,-1,3,-89,-20,0
14405,1,-11,3,4,6,10,-70,100,0
14410,-5,-3,0,-6,-3,0,14,-80,0
14415,-6,1,0,-14,-12,-3,38,-101,0
14420,-4,8,-3,-11,-10,-4,-70,64,0
14425,-2,8,-2,-2,0,6,-61,-114,0
14430,2,3,-4,4,-6,-5,41,46,0
14435,2,2,2,-6,-5,-13,20,66,0
14440,-2,-9,3,0,-8,3,-65,-4,0
14445,-5,-6,-5,2,7,6,-40,62,0
14450,-7,0,-5,-9,5,0,49,80,0
14455,-4,0,-2,-6,8,-7,17,31,0
14460,-2,-2,-1,2,1,-16,-54,49,0
14465,2,-6,1,10,2,-9,-11,109,0
14470,0,-3,-4,-3,-7,-15,36,86,0
14475,1,1,5,7,-1,-3,4,122,0
14480,1,-3,3,8,-3,-2,-35,111,0
14485,-8,-5,-6,-3,-3,-2,-8,43,0
14490,-6,0,1,-4,-6,-4,22,-75,0
14495,4,-1,3,-5,4,5,7,-80,0
14500,1,-1,-3,-1,5,5,-7,56,0
14505,-7,-3,0,-3,-6,12,3,24,0
14510,-2,-6,-3,-4,-1,4,6,-44,0
14515,-6,1,-4,1,0,11,21,-105,0
14520,-15,2,-2,3,5,9,-3,18,0
14525,34,34,-3,5,5,18,0,-43,0
14530,17,15,-1,20,-1,8,6,-34,0
14535,21,-28,11,15,-4,2,4,-101,0
14540,-15,-22,6,-12,-4,6,-17,-12,0
14545,-28,-48,9,-8,-4,-28,-3,-108,0
14550,-26,-13,-3,-25,-6,-17,6,-36,0
14555,-37,16,8,4,-7,-19,13,11,0
14560,120,7,5,11,4,0,-14,-23,0
14565,-78,16,0,0,0,-10,-8,36,0
14570,-98,1,15,-24,2,-8,5,0,0
14575,41,-6,-2,-3,0,-12,4,75,0
14580,63,12,2,3,3,8,0,-32,0
14585,-25,-11,-2,5,-6,2,-4,-52,0
14590,-59,-2,-9,-2,-1,-3,7,18,0
14595,23,10,-5,-7,-7,-6,-7,54,0
14600,67,9,-10,-8,-1,-5,-10,-71,0
14605,2,-11,-6,2,2,-1,-12,-56,0
14610,-87,-10,2,12,3,14,4,42,0
14615,27,-17,8,-12,-7,6,-10,23,0
14620,65,-11,-4,-4,-1,-6,-8,-53,0
14625,-18,3,-5,1,-6,0,-4,6,0
14630,-62,5,-3,2,-5,-6,-1,34,0
14635,-29,67,-9,-4,0,-4,-7,25,0
14640,54,7,-3,-2,-2,-5,-15,-19,0
14645,-19,2,-11,-9,9,-2,-4,2,0
14650,-43,-6,-1,5,3,5,10,-5,0
14655,-10,-20,1,22,-1,16,-3,-7,0
14660,-73,-7,2,-5,-15,1,3,-4,0
14665,37,9,2,-22,-13,-5,-2,-1,0
14670,71,-2,-3,-7,4,2,3,0,0
14675,-21,-5,-1,-1,9,3,2,15,0
14680,-50,-8,-2,13,-5,-2,-2,-13,0
14685,19,-9,4,-3,-8,4,-2,-11,0
14690,47,2,-2,-2,6,-3,-6,5,0
14695,-7,0,-1,-19,-9,-6,0,7,0
14700,-54,-3,-4,-4,-8,-4,-1,-14,0
14705,2,-7,-2,2,-3,-2,0,-13,0
14710,45,-3,-1,6,1,-4,0,15,0
14715,-7,-5,-3,-12,-6,-3,-4,19,0
14720,-52,3,-1,2,-4,-6,-2,-7,0
14725,76,-1,-4,0,4,1,6,-5,0
14730,-59,6,4,-1,1,0,-1,19,0
14735,91,32,-14,-20,2,7,18,-17,0
14740,59,-5,2,4,-3,4,-1,-14,0
14745,-70,39,-6,11,-7,7,5,-7,0
14750,-40,-31,11,3,-15,-13,4,13,0
14755,28,-4,-12,0,19,-9,-2,0,0
14760,54,17,8,-15,17,15,4,10,0
14765,-33,-12,-11,-19,-1,10,-11,-6,0
14770,-49,-29,1,-2,-12,1,-1,-12,0
14775,1,10,-5,23,-11,-11,-4,7,0
14780,58,-3,-7,8,4,4,13,-12,0
14785,73,0,3,0,15,-1,7,3,0
14790,56,7,-6,0,4,2,0,0,0
14795,-51,-38,9,1,-15,8,-41,37,0
14800,-48,22,-5,2,-8,3,-47,11,0
14805,-24,4,-4,-15,-2,-11,-29,-23,0
14810,27,-6,0,14,1,0,4,-101,0
14815,-9,11,0,0,16,10,33,-93,0
14820,-66,-11,8,-12,11,-10,26,85,0
14825,-38,-7,6,-27,6,-9,14,-41,0
14830,56,-6,-7,-12,-1,0,12,-80,0
14835,-16,-29,-13,22,2,1,-3,30,0
14840,-66,-9,-8,25,2,6,-15,62,0
14845,1,-8,-3,22,-5,-10,-65,54,0
14850,49,0,-3,-5,-6,4,-44,-59,0
14855,-24,-10,4,-17,9,-13,-79,-26,0
14860,-56,-53,-1,-13,-1,-35,97,-26,0
14865,18,69,-22,21,-10,1,-56,49,0
14870,34,54,-3,-11,-2,3,-86,37,0
14875,-26,17,8,-1,-14,7,81,14,0
14880,-21,5,5,-10,-10,-12,3,-10,0
14885,9,-28,11,26,1,-10,-33,-8,0
14890,12,-9,2,6,-5,11,81,42,0
14895,-11,-10,-4,-26,2,1,62,18,0
14900,-14,-2,-16,-9,-7,8,121,-31,0
14905,-2,5,-3,-12,-3,30,127,-41,0
14910,13,15,-5,0,12,13,-6,29,0
14915,-1,-11,9,-8,4,11,27,17,0
14920,-10,-8,-1,-4,-3,-4,106,-35,0
14925,-5,-21,-2,-6,-10,-12,30,4,0
14930,16,-1,2,-3,8,-12,-17,52,0
14935,1,0,2,2,-6,-15,-76,-10,0
14940,-18,-1,-1,7,4,-4,-61,-28,0
14945,-1,-18,2,13,3,-3,30,4,0
14950,8,-6,-2,12,-1,5,22,10,0
14955,-4,-10,-3,5,-11,-1,51,-6,0
14960,-15,-4,-6,-6,-3,1,39,35,0
14965,4,-25,3,-7,-1,-2,68,21,0
14970,8,-5,1,-18,-9,-16,-11,41,0
14975,-4,-1,-2,2,5,-3,-128,-5,0
14980,-3,6,0,0,4,12,-100,37,0
14985,6,-2,8,-15,1,5,33,37,0
14990,2,8,-2,-10,-6,-7,-63,-3,0
14995,0,14,-5,-9,-4,0,23,27,0
15000,-2,5,4,-6,-2,-4,38,28,0
15005,0,2,0,-10,-4,-2,49,24,0
15010,-1,0,-1,2,3,2,13,-29,0
15015,-1,-8,1,7,1,0,-1,25,0
15020,-2,4,-6,10,-1,8,-64,41,0
15025,0,-1,2,7,3,-3,-128,11,0
15030,8,-6,4,7,-3,-5,-79,-75,0
15035,-4,-10,-1,4,-1,-5,-113,-56,0
15040,-7,6,-5,2,-1,5,-21,17,0
15045,-3,-5,0,-1,0,-2,-4,-45,0
15050,1,-6,-4,-3,-9,-1,-52,-73,0
15055,0,-8,0,1,-4,5,-37,-50,0
15060,-3,4,-1,12,-7,6,-21,17,0
15065,1,2,1,-7,-2,1,0,-32,0
15070,-2,-5,0,-11,-1,-7,-22,-66,0
15075,-6,-1,-3,-16,-3,-3,-26,-12,0
15080,-2,0,-2,-18,-1,-2,-17,37,0
15085,1,3,-3,1,5,-2,19,-8,0
15090,1,0,-6,4,2,2,61,-41,0
15095,-4,-7,-9,-4,-3,1,48,13,0
15100,-4,-8,-2,-10,4,-6,67,28,0
15105,-1,1,0,-9,-6,-6,46,-7,0
15110,4,-5,-2,-4,-4,-3,-54,-33,0
15115,-4,1,-8,2,0,4,-24,16,0
15120,3,-2,-1,3,-1,0,32,26,0
15125,2,-1,-3,-1,-11,0,-19,-10,0
15130,-5,2,-7,6,2,-1,-40,-31,0
15135,-6,-5,2,-2,-8,-3,95,-38,0
15140,-3,-4,-1,-18,-5,-14,36,18,0
15145,-1,0,0,10,1,-2,-69,-46,0
15150,-4,5,-1,8,0,9,-51,-26,0
15155,-3,-3,-5,4,2,3,87,-11,0
15160,3,-1,1,-6,1,5,66,10,0
15165,1,4,-1,-1,5,4,105,4,0
15170,1,2,-5,-7,-6,-2,127,-16,0
15175,-4,-2,-3,-5,1,8,28,84,0
15180,-2,8,-4,2,-5,1,-37,6,0
15185,1,-9,1,-10,6,7,-73,-46,0
15190,3,2,-2,-3,-1,-6,8,-29,0
15195,-2,-3,-1,0,2,5,-2,63,0
15200,-1,-2,-5,-1,-6,-5,-75,14,0
15205,-5,-9,-1,1,-5,-7,-50,-8,0
15210,0,-6,-2,3,0,2,68,-14,0
15215,-4,-1,2,6,-12,-12,21,58,0
15220,-2,3,-1,4,-3,-5,-63,30,0
15225,1,4,0,-3,-8,-1,-14,-53,0
15230,1,-4,1,-1,-4,-4,54,-21,0
15235,-8,-6,-4,3,1,-7,-4,66,0
15240,0,-8,-1,-2,1,3,-41,12,0
15245,0,-1,0,1,3,4,8,-35,0
15250,2,-3,-5,-4,4,8,31,-9,0
15255,0,2,-6,-8,-2,1,-15,15,0
15260,-2,1,1,-12,3,1,-22,12,0
15265,-1,4,-7,-8,0,3,-2,-38,0
15270,-2,5,-2,-2,3,-2,6,16,0
15275,1,4,0,-7,-7,-7,-1,22,0
15280,1,-2,1,-4,-3,-6,-11,4,0
15285,1,-4,2,10,-1,-6,-12,-7,0
15290,1,-5,5,9,-2,-3,2,-6,0
15295,-1,-6,1,-3,-11,-6,3,18,0
15300,-2,-4,1,-7,-8,-7,-19,5,0
15305,-7,-11,-6,-4,-5,-6,-14,-13,0
15310,-12,-13,-10,-9,-12,-8,14,-6,0
15315,-6,-12,-5,-11,-5,-2,6,4,0
15320,-9,-9,-7,-3,-8,-6,-16,18,0
15325,-2,1,-8,-3,-3,3,-5,-15,0
15330,-13,-17,-10,-10,2,-2,12,7,0
15335,-3,-14,-9,-14,-4,-6,-9,27,0
15340,2,16,-5,-4,-6,7,-3,-32,0
15345,1,1,-2,-15,-5,3,-5,70,0
15350,-10,-22,-5,-8,-3,-7,2,46,0
15355,2,23,-12,2,-7,4,-1,-83,0
15360,8,-35,-1,-18,7,-12,0,-92,0
15365,-11,27,-5,11,-5,0,-2,18,0
15370,-12,-16,2,-20,3,-3,-3,90,0
15375,0,-11,-2,15,-1,-4,-1,-28,0
15380,22,15,-1,-1,-3,5,7,-80,0
15385,0,-15,-2,-3,-6,-5,-4,18,0
15390,-44,-3,-1,-11,0,3,-2,79,0
15395,-3,16,-14,-1,5,-4,0,-27,0
15400,59,-5,-7,29,-4,6,-5,-76,0
15405,6,6,1,1,2,-5,-6,35,0
15410,-77,-8,2,4,1,-5,-7,69,0
15415,-30,-6,3,-11,0,-2,-4,-38,0
15420,77,5,-2,-5,-5,4,-4,-53,0
15425,87,-17,-4,-11,-4,-6,-2,31,0
15430,-63,6,2,11,-8,0,9,41,0
15435,-2,2,1,-6,1,-2,2,-31,0
15440,54,-2,2,-1,2,-5,-5,-38,0
15445,-34,-12,1,-9,4,1,4,26,0
15450,-47,35,-4,1,-4,-6,-1,34,0
15455,-35,-11,7,-2,-5,-3,1,-14,0
15460,-14,14,-8,1,4,-9,1,-19,0
15465,19,-8,-4,-2,2,4,4,3,0
15470,29,1,-5,8,1,6,-11,20,0
15475,-11,-26,13,-1,2,8,-2,-9,0
15480,-13,-3,7,-12,-3,-6,0,-15,0
15485,-23,2,0,-4,-10,-12,2,6,0
15490,21,5,0,3,2,-6,1,19,0
15495,44,4,-4,-1,-1,-2,0,-12,0
15500,-28,-12,1,-6,-3,6,0,-26,0
15505,-39,-7,5,4,5,2,-5,10,0
15510,31,-4,0,-2,3,1,0,15,0
15515,23,-5,-8,-6,-2,-2,-7,-12,0
15520,-43,-3,-2,0,-1,-5,-4,-13,0
15525,-28,7,-7,4,1,-3,2,7,0
15530,39,-5,-6,-12,-4,4,-3,10,0
15535,2,1,-1,-9,0,3,-1,-6,0
15540,-37,7,-3,-1,-3,2,4,-8,0
15545,3,-8,-1,-2,0,5,0,4,0
15550,25,-13,-3,3,5,1,2,4,0
15555,-8,-1,-1,2,-2,-6,2,2,0
15560,-18,-7,-6,-2,-4,-5,-2,-4,0
15565,2,-2,1,-4,0,-5,-6,4,0
15570,10,6,-5,-1,-2,-7,2,3,0
15575,-5,1,-3,0,-2,3,-2,-3,0
15580,-2,-3,-1,5,1,2,-2,-6,0
15585,-9,2,0,1,-2,-2,-5,2,0
15590,7,-9,0,-5,-4,-3,0,4,0
15595,12,-2,0,3,7,-4,1,-2,0
15600,-7,3,-2,3,0,3,3,-4,0
15605,-8,0,-1,-4,7,3,1,1,0
15610,4,-2,-7,4,4,1,-4,6,0
15615,1,-7,3,-3,1,-1,1,-5,0
15620,-11,0,1,-3,3,-4,-1,-5,0
15625,-8,2,-4,-5,-7,1,0,3,0
15630,8,-2,-4,1,-4,0,0,3,0
15635,-4,1,-4,-3,-5,-6,2,-1,0
15640,-16,-9,-1,2,4,-5,-2,-4,0
15645,1,-3,-8,1,0,-3,-3,-4,0
15650,8,-10,-3,0,-7,-2,-3,-3,0
15655,4,3,-2,-1,-1,-3,-7,-3,0
15660,-7,10,0,-7,-2,7,5,1,0
15665,7,2,0,-5,-5,-2,-5,-2,0
15670,-2,0,-5,-2,4,5,2,-1,0
15675,0,1,-4,-4,-1,0,1,2,0
15680,0,1,4,-1,-5,-1,-3,-2,0
15685,-2,-3,-5,1,3,-1,3,1,0
15690,0,-1,3,-3,-6,-7,-1,4,0
15695,5,-8,-4,5,3,-1,0,0,0
15700,-5,-5,2,0,1,-5,-4,-6,0
15705,-3,-6,-1,-2,2,3,0,-2,0
15710,2,3,6,2,-8,-2,-7,-6,0
15715,-1,0,0,-3,-4,0,1,1,0
15720,-5,1,1,3,0,4,-4,-1,0
15725,-4,1,4,3,-4,-3,-2,1,0
15730,2,-1,3,0,11,-1,10,-3,0
15735,-1,-6,-1,-5,-4,-6,-2,0,0
15740,0,5,3,-3,4,1,-4,2,0
15745,-4,4,-1,1,-3,4,-3,-2,0
15750,5,8,-1,-4,-1,-2,-2,2,0
15755,2,4,-4,4,-4,-4,3,-2,0
15760,-3,0,-1,2,4,-3,3,-1,0
15765,0,-6,1,2,0,-5,-4,1,0
15770,-1,0,3,-5,-5,-2,1,2,0
15775,-2,4,0,0,2,2,-3,0,0
15780,-1,-4,-3,1,-7,1,1,-4,0
15785,-3,1,-1,-3,-3,-6,1,-3,0
15790,-4,-6,-4,-7,-4,-2,1,-1,0
15795,2,5,2,-9,-8,-1,-3,3,0
15800,2,1,-3,5,-1,1,-2,0,0
15805,-5,-6,1,-3,1,0,-1,-4,0
15810,-2,-5,-1,-2,-2,-5,-4,0,0
15815,-3,-5,-3,-6,-14,-11,3,1,0
15820,-4,4,-3,-5,0,4,4,-1,0
15825,2,5,1,-8,-9,-7,-4,-6,0
15830,0,-6,1,-2,-1,-3,-1,-4,0
15835,1,-7,-4,-1,7,4,-1,0,0
15840,2,-3,0,3,4,3,-5,-2,0
15845,-3,-3,-2,3,5,0,-5,-5,0
15850,1,-7,-4,6,-2,-1,-7,-3,0
15855,1,2,1,3,5,2,-2,1,0
15860,-1,-3,1,-9,-5,-3,-2,4,0
15865,-1,2,0,1,-3,-4,-2,-9,0
15870,-1,-2,-6,0,-4,-6,-12,-3,0
15875,2,-7,2,-1,4,9,-7,4,0
15880,1,4,0,-10,-2,16,-5,-6,0
15885,0,16,-4,0,0,-6,4,-10,0
15890,-6,-8,-3,-5,0,7,6,2,0
15895,-5,-4,-5,6,4,-3,15,3,0
15900,-3,-2,-1,-6,0,-7,2,4,0
15905,0,-7,-2,-3,-2,6,-4,-3,0
15910,-1,-4,-3,-3,-1,-4,-1,-3,0
15915,0,4,2,4,-3,-2,-14,6,0
15920,0,0,3,5,-2,3,2,-3,0
15925,-1,8,-3,1,-8,2,-2,-7,0
15930,1,-8,-1,-2,-7,2,5,-2,0
15935,1,-11,3,-16,-2,-5,8,2,0
15940,-1,-8,-3,-2,0,-12,-3,7,0
15945,-2,-15,-5,6,4,-5,-8,-4,0
15950,-1,5,-4,12,2,1,-7,-4,0
15955,4,11,-8,10,3,6,-2,0,0
15960,-4,4,4,-8,3,-10,-1,1,0
15965,-7,-4,5,-17,-5,-4,7,-5,0
15970,-2,6,2,-10,-6,0,-2,1,0
15975,-2,3,-1,7,-3,0,6,1,0
15980,1,2,-4,9,7,0,-4,-1,0
15985,-3,-6,-1,-5,-1,-1,-4,-3,0
15990,5,-2,-2,-9,1,1,3,-4,0
15995,-1,-4,0,-10,0,8,3,4,0
16000,-1,1,-5,-6,-6,4,0,-4,0
16005,-3,2,3,6,-3,5,0,-3,0
16010,1,3,2,7,5,-1,4,-5,0
16015,4,-1,3,-3,-4,2,-3,4,0
16020,-5,-9,-1,2,-1,-1,4,-1,0
16025,-4,4,1,-2,-2,-13,-1,-5,0
16030,4,-5,-3,-9,-5,-14,-7,1,0
16035,1,-6,-5,0,0,-6,0,1,0
16040,0,-9,-1,11,-4,-6,0,-6,0
16045,2,3,-1,3,-2,-4,-7,0,0
16050,-3,-2,4,2,-2,1,1,1,0
16055,-2,1,1,-3,2,-2,0,-2,0
16060,-2,3,-3,-1,-2,7,-4,0,0
16065,-4,-6,2,-6,-3,4,-5,-6,0
16070,1,5,-3,-4,3,-2,0,0,0
16075,-4,-1,-4,-6,2,6,-1,8,0
16080,-2,-7,-5,1,1,-5,-8,2,0
16085,-6,-1,-11,-9,2,-8,-5,-7,0
16090,-6,-7,-5,-2,0,5,-4,-1,0
16095,-6,-2,-1,-3,-8,-4,2,7,0
16100,1,4,3,-1,-2,3,8,4,0
16105,-2,-3,1,-2,-9,6,-6,-15,0
16110,2,0,-2,1,-3,7,-1,-12,0
16115,3,-3,-2,-2,-2,4,-2,15,0
16120,3,3,4,-7,-4,-1,-13,10,0
16125,-4,-4,-1,-1,9,3,-1,-29,0
16130,8,-3,-5,3,13,-2,8,-86,0
16135,-12,6,-2,-2,4,-5,-3,71,0
16140,-10,-2,-2,0,-1,-14,0,25,0
16145,11,-6,7,12,11,-10,12,-68,0
16150,2,18,-4,0,-9,-9,5,-2,0
16155,-9,-5,-7,-2,2,-10,-11,28,0
16160,0,10,-2,-1,-3,-3,-7,10,0
16165,6,-5,-2,-3,-9,7,2,-22,0
16170,2,-18,-1,10,8,15,9,-23,0
16175,-6,-8,0,0,1,-9,-10,37,0
16180,-8,-3,-3,-4,-4,-4,-10,14,0
16185,11,7,-5,1,1,4,10,-60,0
16190,0,-2,-3,-1,-7,8,0,0,0
16195,-5,-2,-2,-10,-1,4,-3,39,0
16200,-7,-9,2,-13,3,-8,-5,-18,0
16205,3,-6,2,0,6,0,11,-50,0
16210,0,-4,4,-2,-1,0,5,12,0
16215,-2,11,6,5,-9,-12,-10,43,0
16220,-3,9,-4,6,-4,-2,-8,-24,0
16225,4,6,-3,6,-2,2,-8,-30,0
16230,0,0,-4,6,6,9,0,36,0
16235,0,-9,-3,-2,0,2,-5,12,0
16240,1,-6,-1,-11,-11,-2,-6,-28,0
16245,2,-6,0,-5,-1,-1,3,-17,0
16250,-6,-4,-4,-1,-4,-3,3,32,0
16255,0,6,0,0,7,1,3,6,0
16260,1,7,-3,-7,-2,-7,-5,-29,0
16265,2,5,-8,-3,-3,5,4,-6,0
16270,-2,-2,-2,6,1,7,3,18,0
16275,3,-3,-2,6,2,2,2,8,0
16280,-6,-8,-4,6,3,7,5,-87,0
16285,-9,-5,0,0,-3,1,-11,-27,0
16290,2,-1,-1,1,2,-6,-5,-47,0
16295,4,-5,1,-1,-2,3,-1,-15,0
16300,-3,-1,2,-7,-2,2,0,17,0
16305,-8,-13,-7,-7,2,3,-5,17,0
16310,-9,2,-2,-10,3,-2,-3,15,0
16315,4,12,-3,-4,-1,0,4,-40,0
16320,3,3,4,-6,-8,-1,2,-5,0
16325,-3,-1,-4,-5,-7,4,1,33,0
16330,-3,-3,3,-3,-8,-4,-6,12,0
16335,5,-1,1,-1,2,1,3,-56,0
16340,-3,-1,0,3,7,2,1,-1,0
16345,-9,1,-3,0,-10,-5,-7,55,0
16350,2,-9,2,4,-5,-7,-12,-5,0
16355,8,5,-1,4,-2,4,-2,-53,0
16360,6,-9,-2,5,3,5,-3,12,0
16365,-8,1,3,1,6,-1,-4,33,0
16370,-6,6,-2,-12,0,-5,-3,-12,0
16375,3,0,-2,-1,2,4,4,-45,0
16380,6,0,1,5,6,-3,7,4,0
16385,-9,8,-7,3,1,-12,0,19,0
16390,-3,8,-6,3,-3,-10,2,-14,0
16395,3,2,5,1,2,-7,10,-24,0
16400,-1,5,-5,-6,0,-2,4,3,0
16405,-10,-14,-4,-13,-6,-3,3,15,0
16410,-5,-2,-4,-10,-5,0,-1,8,0
16415,7,-9,-3,4,-1,10,-2,-24,0
16420,0,-7,-4,9,6,16,-3,7,0
16425,-5,-8,-10,-9,-4,-1,-16,24,0
16430,-4,-15,-8,5,1,4,-24,11,0
16435,13,-18,3,8,3,4,-13,-20,0
16440,4,1,-1,-6,-3,-8,-12,-7,0
16445,-9,1,-2,6,-13,-17,-10,20,0
16450,-7,0,-1,-4,-12,-8,2,-4,0
16455,13,18,0,-6,2,-3,14,-29,0
16460,-5,-3,5,-9,4,-1,23,-6,0
16465,-27,-3,2,-16,-9,-8,16,7,0
16470,-12,-9,1,0,-3,-10,14,1,0
16475,15,3,4,5,-2,4,2,-16,0
16480,6,3,4,15,-7,-11,-15,0,0
16485,-33,-11,-2,1,-3,-4,-8,18,0
16490,-9,-6,-5,3,2,-4,-3,0,0
16495,26,-2,-6,-2,9,4,-6,-8,0
16500,13,13,-9,-8,-1,20,5,4,0
16505,-24,7,-3,-17,-1,12,1,11,0
16510,-11,-1,-5,-19,-3,10,1,3,0
16515,53,-5,1,3,0,1,-2,-12,0
16520,57,-14,0,11,0,-11,-3,-10,0
16525,-56,-14,0,16,0,3,1,6,0
16530,-76,-2,4,4,6,-4,1,0,0
16535,50,2,-2,-5,-4,-8,-4,-15,0
16540,68,0,-4,-3,1,-1,2,-2,0
16545,-38,8,0,-6,6,2,5,14,0
16550,44,4,0,-8,-2,9,7,2,0
16555,32,-1,-3,5,-3,0,-7,-12,0
16560,-88,-2,-3,-7,-3,3,0,-5,0
16565,-32,1,1,-6,3,4,0,14,0
16570,72,3,2,1,-6,-7,-1,4,0
16575,45,-13,-5,0,-5,-8,0,-16,0
16580,-64,-6,-2,0,4,-6,-3,-4,0
16585,-57,0,1,9,3,0,0,10,0
16590,55,2,4,6,2,2,-3,6,0
16595,56,2,-1,-9,2,2,-4,-9,0
16600,-76,-8,-7,-10,1,-1,-2,-1,0
16605,-53,-4,1,-2,1,-1,0,5,0
16610,70,2,4,5,-3,-5,-3,-1,0
16615,46,-1,-2,2,-7,-7,-4,-13,0
16620,-66,-3,0,4,2,3,-3,0,0
16625,-31,6,-6,2,5,7,-4,2,0
16630,60,10,3,-8,-5,-6,1,-2,0
16635,16,-5,-7,-14,0,-4,0,-5,0
16640,-51,-11,-2,1,-2,-4,-2,-2,0
16645,-13,1,-3,10,-3,-5,-5,8,0
16650,37,-7,0,-1,-6,3,-6,1,0
16655,9,-1,-5,-1,-7,-5,-9,-2,0
16660,-24,5,1,1,-2,-2,-2,4,0
16665,-10,-8,-4,-2,6,-6,0,1,0
16670,22,5,-5,-7,-4,-2,1,-3,0
16675,15,4,-1,8,-6,-4,-5,-1,0
16680,-12,4,2,-1,-8,5,3,-1,0
16685,-17,7,6,-1,4,-2,7,1,0
16690,15,-7,1,-14,4,-2,-2,-3,0
16695,18,-16,5,-8,1,2,-4,-3,0
16700,99,-12,6,-21,-8,-7,9,-13,0
16705,-2,24,-16,14,7,1,12,3,0
16710,-128,-14,-20,21,6,-1,-5,7,0
16715,-38,18,-22,-37,-2,6,-18,-3,0
16720,24,-16,-2,-22,3,26,-15,4,0
16725,4,-19,22,2,1,-1,3,-5,0
16730,-99,-3,0,19,-5,-17,2,1,0
16735,-98,-13,0,37,-5,-14,-2,-2,0
16740,40,-1,-12,14,0,-32,-8,1,0
16745,-2,-2,-1,-16,2,2,8,1,0
16750,-45,2,6,-23,0,1,7,-3,0
16755,-48,3,8,-23,-3,3,11,0,0
16760,26,12,-1,-5,1,11,-2,1,0
16765,14,-5,-2,9,-2,0,-11,3,0
16770,-31,-5,-4,-2,3,2,-8,-6,0
16775,-10,1,6,-11,2,2,1,3,0
16780,-18,1,-5,-6,-5,1,4,22,0
16785,5,-4,-6,-4,1,1,-1,-2,0
16790,-35,1,1,1,-2,4,-2,0,0
16795,-3,-13,1,9,1,-4,3,21,0
16800,-1,-4,2,13,-4,-6,-8,30,0
16805,-10,-5,0,0,-3,5,-6,-13,0
16810,-10,-6,-5,-15,-10,-4,-2,-7,0
16815,24,-3,-1,3,-2,-6,-2,36,0
16820,-10,1,-2,3,4,-2,3,-13,0
16825,-2,5,-7,0,1,3,-6,-31,0
16830,17,-8,-1,-6,0,2,-1,6,0
16835,8,-4,-5,-1,3,3,-2,43,0
16840,3,4,-3,-6,3,-2,1,10,0
16845,-24,4,-1,-7,0,-5,-1,-54,0
16850,-15,6,-1,7,0,3,1,-24,0
16855,14,-2,-3,1,-1,2,-3,27,0
16860,-33,0,-1,2,-1,-1,2,-29,0
16865,-15,-8,-2,-8,-3,0,-1,-69,0
16870,42,-3,-1,-3,6,0,0,-12,0
16875,20,-7,-4,-3,-9,-4,-2,67,0
16880,-22,-12,-3,5,6,-3,-7,25,0
16885,-30,-5,-4,2,1,-1,-4,-60,0
16890,23,-8,-1,-2,3,-6,-2,-118,0
16895,11,-4,-6,4,1,-5,0,47,0
16900,-56,13,3,3,4,9,1,-10,0
16905,-22,-9,-4,-10,1,-6,-2,-24,0
16910,72,-4,0,-4,-8,1,-3,-16,0
16915,25,5,-2,3,1,-2,2,-71,0
16920,-62,1,-5,-3,-8,-2,-1,18,0
16925,-20,5,2,1,-4,-2,-2,73,0
16930,54,-1,0,2,10,3,2,42,0
16935,22,-2,2,-6,-2,-2,-2,-27,0
16940,-37,1,4,1,0,-5,0,-1,0
16945,-27,-2,2,-6,-5,-3,1,37,0
16950,47,-5,-3,1,-2,-2,-1,47,0
16955,21,2,5,4,-1,3,3,-34,0
16960,-39,-3,-3,-4,-1,-1,0,-27,0
16965,-15,-6,2,-8,-1,-1,4,32,0
16970,35,-4,-1,-2,-3,-2,-3,29,0
16975,15,-2,-1,-7,-7,-2,2,-32,0
16980,-30,-4,-1,1,-5,0,-3,-7,0
16985,-9,-2,-5,5,-6,-2,-5,31,0
16990,28,11,2,-1,1,2,3,16,0
16995,0,1,4,-1,-4,1,4,-31,0
17000,-4,-10,-6,-13,-9,-4,-3,-6,0
17005,20,-2,3,4,-1,-2,-9,17,0
17010,-111,8,-3,-2,2,9,-4,1,0
17015,-115,6,0,4,8,1,2,-14,0
17020,68,6,1,0,-3,3,11,-9,0
17025,86,6,-4,-3,-4,3,-6,14,0
17030,-50,3,-1,-3,-12,-7,9,-3,0
17035,-83,-2,-3,-7,0,1,11,-13,0
17040,40,4,-1,-2,-5,-2,6,-8,0
17045,81,-12,-5,3,-4,-3,-4,5,0
17050,-20,-9,3,0,-3,0,-12,9,0
17055,-71,-3,-5,3,-2,-5,12,-22,0
17060,33,-13,0,3,-4,-5,-9,-4,0
17065,66,-16,1,-6,-3,-23,-1,8,0
17070,-25,-3,0,-10,-3,3,10,-2,0
17075,-58,16,-1,-7,-4,12,0,-7,0
17080,18,-11,-3,-4,1,-9,-9,-2,0
17085,47,-19,4,-1,4,-1,6,-4,0
17090,-24,-6,-1,7,6,-4,-10,7,0
17095,-39,12,-1,-4,-2,7,-16,-6,0
17100,25,9,-2,2,2,13,1,-5,0
17105,28,-10,-1,-7,-5,2,-3,9,0
17110,-14,-10,-3,-7,-6,-6,-8,-1,0
17115,-21,-5,-1,-1,1,1,0,-15,0
17120,22,16,0,2,-4,1,-3,0,0
17125,27,17,0,3,-3,3,2,9,0
17130,-9,6,-1,-4,-9,3,2,-6,0
17135,-22,-7,-3,2,-2,-10,-11,-1,0
17140,-3,15,2,-6,2,3,-6,9,0
17145,14,14,-3,-2,-5,12,19,8,0
17150,-9,-1,-3,-8,-3,-8,-1,-3,0
17155,-24,-17,-6,1,-10,-8,-12,-11,0
17160,1,-29,1,2,6,-4,4,-6,0
17165,17,-6,1,10,3,1,6,5,0
17170,-8,-4,-2,5,-2,3,-7,5,0
17175,-13,3,-2,-9,-5,-3,-24,-6,0
17180,7,5,-2,-11,-4,6,-2,3,0
17185,10,-19,0,4,-9,1,14,7,0
17190,-5,-10,-3,1,2,-4,16,-1,0
17195,-14,5,-4,-15,-17,-22,-108,0,0
17200,10,10,2,3,1,-2,29,-3,0
17205,24,22,1,-4,9,9,51,1,0
17210,-7,1,-6,-4,0,6,-17,1,0
17215,-13,-4,-5,-3,-5,-4,-83,-4,0
17220,4,1,-5,14,20,11,69,-1,0
17225,3,4,0,0,3,-2,50,-4,0
17230,0,-7,4,-5,-12,-9,-84,-3,0
17235,-16,-7,0,10,16,14,-45,4,0
17240,49,-5,-1,5,7,0,47,-3,0
17245,106,15,1,1,2,1,113,-1,0
17250,69,-4,-15,16,45,20,32,0,0
17255,74,-30,-1,9,19,8,-19,2,0
17260,-87,-24,-5,-9,-12,-10,-13,-6,0
17265,-97,5,-4,0,-2,-10,57,-5,0
17270,47,-1,-2,-4,-5,-11,-67,-2,0
17275,63,-2,0,9,8,-5,-39,1,0
17280,-58,-7,4,4,-4,-8,-119,-3,0
17285,-96,-9,-4,-7,3,0,-95,-2,0
17290,47,2,-5,-6,-6,-4,-7,2,0
17295,101,-4,-6,-11,-5,-7,74,0,0
17300,-37,5,-5,1,-1,-2,10,-3,0
17305,-95,3,-2,2,-3,6,-63,-1,0
17310,54,0,0,0,-1,2,43,-2,0
17315,90,6,-3,-8,-5,-8,68,-4,0
17320,-30,9,1,-11,-6,-6,9,2,0
17325,-82,16,-3,2,6,8,-35,-4,0
17330,42,7,-5,9,2,5,28,-2,0
17335,61,-4,2,-4,-7,2,62,0,0
17340,-41,19,0,-10,-10,-5,-35,9,0
17345,-42,0,-4,3,6,1,-51,-2,0
17350,36,-30,6,-7,-7,-6,9,-1,0
17355,37,-43,5,-10,0,-10,3,0,0
17360,-20,-12,1,10,3,-2,-8,-2,0
17365,-19,15,7,10,4,15,-23,-3,0
17370,28,25,-1,-2,-7,5,15,-1,0
17375,24,-10,1,-11,4,-1,31,-2,0
17380,-14,-22,0,-10,-8,-3,-1,-2,0
17385,-20,-2,-4,1,7,-1,-14,0,0
17390,12,15,-5,4,-4,2,1,-2,0
17395,29,9,-6,2,-3,3,10,0,0
17400,-12,-9,-6,-15,-4,3,2,-2,0
17405,-18,-5,0,-7,-6,-6,-23,-1,0
17410,17,11,-3,4,7,-6,-4,7,0
17415,-3,10,-4,-3,-6,-1,-2,-2,0
17420,-7,6,-5,6,-8,-14,-9,-5,0
17425,-10,-20,-1,0,0,2,-2,-3,0
17430,-128,12,0,-2,-3,-11,0,2,0
17435,-108,17,-7,7,0,-6,2,9,0
17440,48,0,3,3,-1,9,-5,-5,0
17445,88,-19,7,-10,-7,0,-12,-1,0
17450,-29,-2,-3,-4,-1,-3,3,0,0
17455,-84,18,-5,4,-1,-6,6,-4,0
17460,45,-10,-2,1,-2,16,-6,-2,0
17465,87,-4,-2,-4,-8,11,-4,-3,0
17470,-30,4,0,-5,-5,-4,-1,0,0
17475,-87,6,1,-1,-2,-8,12,0,0
17480,34,-15,4,-6,-3,-1,1,-5,0
17485,67,-4,-5,-8,4,-6,-6,1,0
17490,-39,-11,3,-7,1,-10,4,-5,0
17495,-54,7,5,5,-1,1,4,-2,0
17500,40,-17,2,4,-1,9,1,-7,0
17505,42,-11,0,1,0,-1,-5,1,0
17510,-34,7,-3,-1,2,-3,3,4,0
17515,-36,5,2,-2,2,-4,4,2,0
17520,25,1,-7,3,2,-2,0,-3,0
17525,24,8,-8,-6,-3,-5,-3,-8,0
17530,-18,-9,5,-4,4,-5,1,0,0
17535,-28,7,-3,0,1,-3,-1,-7,0
17540,13,18,-6,0,6,6,-1,2,0
17545,15,-12,-1,2,-1,6,-1,0,0
17550,-9,-15,1,-7,-7,-4,-6,-1,0
17555,-30,-7,4,1,4,-1,-3,1,0
17560,8,-10,12,4,2,-1,-3,-2,0
17565,24,9,-1,2,-4,-1,-2,-2,0
17570,-17,14,-2,-2,1,-2,1,4,0
17575,-24,-3,-3,-5,-3,-1,5,-2,0
17580,6,8,-7,-4,-7,4,-3,0,0
17585,17,2,-4,1,-8,-6,-7,-4,0
17590,-9,-8,0,5,-1,-8,-2,0,0
17595,-10,-5,-4,-3,3,-3,2,-2,0
17600,10,6,-6,-4,3,2,1,-1,0
17605,-2,-12,28,0,-7,4,3,-3,0
17610,1,29,-33,-72,6,2,-10,-7,0
17615,-12,10,16,39,2,26,26,4,0
17620,2,9,4,26,8,25,0,-1,0
17625,13,11,-8,-1,-6,34,-34,7,0
17630,-8,-11,13,2,-1,-6,-5,-1,0
17635,-4,-7,0,-38,2,-9,-2,-3,0
17640,-18,-51,31,3,-3,-14,1,-2,0
17645,12,54,-25,-72,10,-16,5,-11,0
17650,-14,-48,46,27,-4,25,41,-4,0
17655,-1,22,-16,10,8,5,8,0,0
17660,13,26,-33,15,-2,42,-52,8,0
17665,3,-33,39,29,1,-16,-13,2,0
17670,-3,6,-3,-22,-4,-7,-9,-4,0
17675,-3,2,-55,-29,5,-36,-11,5,0
17680,14,28,-9,3,6,12,-8,-5,0
17685,5,0,-22,53,-5,15,-1,0,0
17690,-1,9,-9,24,-10,-26,-27,5,0
17695,-18,-29,36,-16,-11,7,-6,-8,0
17700,-1,-23,-1,-29,-5,-15,32,-4,0
17705,6,-30,-1,2,14,0,25,0,0
17710,-6,-20,8,23,5,-6,21,1,0
17715,-9,-3,0,-6,-3,-4,10,1,0
17720,7,-2,14,-18,3,-14,15,4,0
17725,6,4,2,-4,5,6,1,5,0
17730,-2,40,-11,22,-2,25,-13,0,0
17735,-1,20,1,23,-5,12,-17,0,0
17740,2,8,-8,-9,-8,-36,-15,-6,0
17745,-6,-18,-2,-7,-6,-9,-9,-2,0
17750,-1,-9,-10,-4,4,21,-13,3,0
17755,-5,-9,11,10,-8,-1,-8,-3,0
17760,-4,-10,-7,-6,-7,-36,5,-3,0
17765,-3,8,-13,-4,3,-30,-2,-5,0
17770,-9,8,0,18,0,-3,6,1,0
17775,-1,12,6,13,-2,5,2,-4,0
17780,-2,-3,-1,0,2,-11,1,2,0
17785,-1,-1,0,-10,-6,-27,0,1,0
17790,-3,3,2,-10,-5,4,-2,0,0
17795,2,-3,9,6,-1,30,-2,0,0
17800,0,4,-2,16,10,8,7,-5,0
17805,3,-5,7,-10,-1,1,2,-5,0
17810,3,-10,-1,-14,1,9,-5,-2,0
17815,-1,51,-11,-7,-8,0,-5,0,0
17820,-1,34,-4,0,6,7,-5,1,0
17825,1,-7,-10,2,2,-4,-1,3,0
17830,1,-47,2,-5,-1,-13,0,-3,0
17835,-6,-69,1,-10,-8,-7,-11,-3,0
17840,-5,-36,-5,0,-3,-13,-3,-1,0
17845,-1,-7,0,4,0,0,10,-6,0
17850,1,4,-4,1,1,-1,-2,5,0
17855,4,13,-1,18,-2,2,2,1,0
17860,-4,38,0,4,-11,4,12,-6,0
17865,0,24,-6,-16,1,11,-8,-5,0
17870,5,14,0,-12,3,-3,-4,-3,0
17875,-6,-15,6,43,-5,-14,6,0,0
17880,0,-13,11,0,-6,-3,-15,-1,0
17885,-6,4,7,-14,2,-6,-1,7,0
17890,-3,4,4,2,-5,17,1,12,0
17895,2,40,4,-23,-4,0,-5,5,0
17900,2,38,-25,1,3,3,-5,7,0
17905,1,12,-13,0,-10,-3,-7,-7,0
17910,-2,-19,-6,-5,-2,-12,-2,-4,0
17915,-2,-54,-4,-12,2,-7,-1,-1,0
17920,-7,-45,5,1,1,-11,-6,-1,0
17925,2,-15,-4,6,1,3,-9,-1,0
17930,0,-5,-6,10,4,6,5,-5,0
17935,1,-9,-3,0,-3,3,0,-2,0
17940,0,-8,2,-13,0,-1,3,-5,0
17945,-6,-11,1,1,-2,-8,8,-2,0
17950,0,5,0,4,-7,-2,5,3,0
17955,-3,13,5,-3,7,8,-2,-2,0
17960,-3,-4,3,-13,-2,-6,-8,-2,0
17965,1,3,1,7,-3,-12,3,1,0
17970,-2,28,-7,2,0,1,8,0,0
17975,-1,19,-3,-9,9,4,4,-6,0
17980,-2,4,0,0,-3,-1,6,-4,0
17985,1,2,-2,1,-3,7,3,1,0
17990,0,-3,1,-5,-5,-2,-3,-2,0
17995,-6,-22,-3,-10,5,-4,-3,0,0
18000,0,-6,-7,3,2,1,-5,-1,0
18005,0,11,1,6,-3,2,-1,5,0
18010,5,13,-5,1,-2,-3,2,0,0
18015,0,0,0,-5,-2,8,-1,-5,0
18020,1,-6,1,-4,-4,0,-5,-7,0
18025,-2,-12,2,-9,-3,-3,-3,-2,0
18030,1,-5,1,-3,-1,6,0,0,0
18035,-3,-5,1,-4,-9,-4,-2,1,0
18040,-7,3,-1,0,-6,1,-2,-1,0
18045,-2,-2,-5,4,-3,7,14,-3,0
18050,1,10,3,0,-2,-4,0,-2,0
18055,-3,0,-4,2,-1,-10,-1,0,0
18060,0,-9,0,-3,-3,-3,-3,0,0
18065,2,-4,0,3,1,-3,-7,3,0
18070,1,-2,-4,-5,-4,-7,-3,3,0
18075,-1,7,-4,-9,2,6,-5,-1,0
18080,-3,1,0,-4,-7,-10,7,2,0
18085,-8,10,-3,-1,-11,-17,-1,-1,0
18090,-9,5,0,-4,9,46,-20,1,0
18095,-5,-51,-14,28,-10,-48,-9,-3,0
18100,-4,-83,17,35,-2,17,-13,-7,0
18105,4,74,-68,-99,2,-31,4,-1,0
18110,17,0,25,-46,11,-21,16,-2,0
18115,8,30,-7,41,-1,17,6,-2,0
18120,-11,-28,0,56,-3,-2,10,-6,0
18125,11,-76,31,34,-13,-14,-4,-11,0
18130,4,14,4,-51,-3,15,12,-13,0
18135,3,28,7,-11,-3,19,7,12,0
18140,2,61,-23,-2,3,-11,9,-3,0
18145,-13,18,-4,21,-5,4,-10,-2,0
18150,-4,12,-13,10,-3,-29,-11,-4,0
18155,-4,22,10,-24,-7,12,-1,-3,0
18160,-5,50,-6,-28,4,9,7,3,0
18165,1,-28,13,-3,5,7,10,0,0
18170,3,-65,-4,26,-8,-9,-12,4,0
18175,-6,-29,-8,-10,-6,-9,-10,-5,0
18180,-11,-7,3,-22,-5,-5,-3,1,0
18185,0,12,-2,5,5,7,5,-5,0
18190,10,-6,2,27,0,-9,4,12,0
18195,1,-9,-8,1,6,8,-17,0,0
18200,-17,-16,-3,-43,1,0,-3,-11,0
18205,-9,-4,6,17,8,-1,4,-1,0
18210,14,2,-2,8,-7,1,10,1,0
18215,1,8,4,-5,1,-14,-1,1,0
18220,-19,17,1,-5,0,-1,-7,-1,0
18225,-10,-5,4,16,-2,4,-10,2,0
18230,22,-3,-6,2,-5,-3,-15,7,0
18235,13,0,-1,-20,-1,-1,5,2,0
18240,-83,-14,4,-2,4,-5,6,10,0
18245,22,-10,1,-1,-2,9,-10,3,0
18250,51,-1,-17,-13,-5,-1,-2,-9,0
18255,-41,-2,4,7,0,-4,7,-1,0
18260,3,3,-3,23,-3,1,-7,-16,0
18265,-35,3,4,-9,-3,11,-7,4,0
18270,-19,-4,-7,17,2,-7,-9,30,0
18275,18,-18,3,-19,-13,-5,-5,3,0
18280,9,-7,-6,9,5,-7,7,-88,0
18285,0,9,1,9,0,2,7,36,0
18290,-20,5,-9,-1,-6,5,-1,82,0
18295,-3,22,3,-15,-3,-1,0,-82,0
18300,23,33,9,-1,-4,2,2,-53,0
18305,9,-16,1,5,0,5,11,0,0
18310,-24,-16,-1,7,-2,-2,-4,52,0
18315,-19,0,3,-6,-1,-4,-1,127,0
18320,25,1,4,-27,-13,1,4,93,0
18325,10,6,-6,2,6,8,0,90,0
18330,-40,0,-2,9,1,-10,-6,96,0
18335,-5,-24,-8,-4,-4,-7,-14,-85,0
18340,19,-18,-3,-9,1,2,-6,-82,0
18345,-7,-4,-5,-17,-11,-7,-6,81,0
18350,-27,0,2,-8,1,4,-2,72,0
18355,3,-8,0,6,8,5,-1,127,0
18360,26,4,1,-4,-9,4,-6,127,0
18365,-7,1,-2,0,2,4,-8,90,0
18370,-9,-3,-1,-9,-2,-3,-6,79,0
18375,7,-7,2,-6,-6,-6,2,-28,0
18380,5,-1,6,-12,-6,-1,3,-36,0
18385,0,8,6,-1,3,2,9,-128,0
18390,-3,8,1,3,-6,-1,2,-128,0
18395,2,5,-2,15,9,-2,9,-109,0
18400,5,-6,-5,10,6,-8,4,-59,0
18405,6,1,-3,-2,-13,2,4,-42,0
18410,-1,20,-6,-5,-1,-4,2,-79,0
18415,-7,23,-7,-4,-3,-8,5,-29,0
18420,11,-3,13,16,-4,-4,2,24,0
18425,1,-7,8,7,0,-7,1,-64,0
18430,-8,-7,8,0,0,-5,-7,-128,0
18435,-1,-17,0,-4,3,6,-7,-10,0
18440,7,-11,-7,-4,4,3,0,-64,0
18445,0,-17,-1,-1,-5,2,-6,-128,0
18450,-9,-10,0,-1,-3,5,-8,-128,0
18455,2,9,0,8,14,12,-3,59,0
18460,2,2,-2,-4,0,4,-6,126,0
18465,-1,-3,-3,-18,-14,-17,-15,-57,0
18470,-4,-5,1,8,6,-2,6,25,0
18475,1,-10,-4,-8,-17,-2,0,-67,0
18480,-3,-1,-10,-3,-4,3,6,105,0
18485,-2,9,-4,4,4,0,8,127,0
18490,1,10,-3,-7,-13,-10,0,-13,0
18495,0,8,-2,0,-1,-2,0,-24,0
18500,-1,0,-4,-3,1,3,0,-31,0
18505,-2,-5,0,2,-1,1,-8,-36,0
18510,-4,0,5,-1,-3,0,-4,-37,0
18515,0,-5,3,6,3,8,1,-20,0
18520,-1,-2,-3,-2,4,-5,4,-34,0
18525,0,-2,1,0,8,3,-3,-23,0
18530,0,-2,-6,-3,0,8,7,-92,0
18535,0,-2,-1,1,-5,-1,4,103,0
18540,4,6,-2,0,5,-7,3,48,0
18545,-2,7,-4,-5,-6,-15,3,25,0
18550,-3,-1,-9,23,-2,-13,-4,25,0
18555,-4,0,-9,-10,2,3,-5,-56,0
18560,4,2,1,4,3,1,-2,-46,0
18565,1,-4,0,-3,-8,-2,3,-12,0
18570,-3,-3,3,-3,0,-2,8,21,0
18575,-4,1,4,0,-3,-3,-19,-27,0
18580,-2,0,-4,-18,6,-5,32,-6,0
18585,1,15,-3,-5,1,-19,-4,-14,0
18590,3,17,-2,57,-7,4,-17,29,0
18595,2,-14,-4,-30,-9,-8,10,-9,0
18600,-4,12,1,3,-9,1,-11,-24,0
18605,-2,7,0,-25,7,14,6,-9,0
18610,-1,5,5,-3,-5,-7,8,21,0
18615,-6,-12,4,11,-3,-6,-14,-7,0
18620,-3,0,-1,-4,-5,6,-10,-15,0
18625,-2,-5,-1,-2,-5,-2,-1,-3,0
18630,-2,14,-2,-10,2,6,-9,24,0
18635,0,1,-2,3,2,8,7,-11,0
18640,0,-11,2,0,-1,-2,3,-7,0
18645,-3,-6,0,21,7,10,1,-103,0
18650,-2,-10,-2,-17,-4,-8,0,-21,0
18655,5,4,2,-7,-11,-4,18,-128,0
18660,-5,-10,-5,-3,-6,-3,7,-23,0
18665,-2,-17,2,-2,-9,-6,-28,36,0
18670,-7,-17,1,-7,2,20,-20,113,0
18675,-1,-14,-3,-1,4,-14,5,-77,0
18680,0,-6,-6,9,5,-2,-1,-128,0
18685,0,11,2,0,-7,28,20,86,0
18690,0,28,-5,-16,6,0,2,-107,0
18695,1,14,-1,-4,1,0,-7,111,0
18700,0,2,-6,-9,-5,-6,-14,-79,0
18705,2,-3,-12,18,23,8,1,103,0
18710,2,-14,-5,-16,-5,4,3,-109,0
18715,-1,8,-1,21,5,20,-9,74,0
18720,-1,7,0,-4,-11,2,-25,121,0
18725,5,-15,8,-22,3,-7,4,111,0
18730,2,-21,10,12,0,-1,12,-47,0
18735,-2,-13,4,-2,9,13,6,13,0
18740,-5,-15,-1,13,6,-10,-4,127,0
18745,-6,1,-3,-9,-17,-8,-15,-93,0
18750,-1,4,-11,-4,7,-12,5,-62,0
18755,-2,-4,-3,0,4,-7,13,-66,0
18760,2,-15,10,2,6,13,10,45,0
18765,0,-4,2,3,3,-15,8,-128,0
18770,-4,-10,0,-9,3,-10,1,-3,0
18775,3,12,-7,4,2,7,-10,2,0
18780,5,20,-5,4,-2,0,-5,61,0
18785,1,0,-5,10,-1,-12,-10,11,0
18790,5,-8,-1,-2,-7,-4,-8,74,0
18795,9,6,1,7,-1,0,-2,56,0
18800,114,-4,6,-6,2,4,-3,88,0
18805,121,-4,2,5,5,-1,1,40,0
18810,45,1,-6,-3,1,-8,-4,-47,0
18815,-40,0,-11,-5,0,-2,-1,10,0
18820,-105,24,-3,-3,-6,1,4,-36,0
18825,-116,21,-6,7,3,4,11,-94,0
18830,-86,21,-2,-2,-6,0,2,-36,0
18835,-78,10,4,4,-8,-8,0,-72,0
18840,-86,3,-3,-7,3,0,4,-51,0
18845,-67,-3,-2,-5,-5,5,-7,55,0
18850,-60,-17,-2,-7,4,-6,-5,84,0
18855,-39,-11,2,1,0,-3,2,47,0
18860,-34,-7,5,11,8,4,1,81,0
18865,-38,-14,0,-3,-3,-14,-2,83,0
18870,-27,1,0,-4,-7,-11,-4,126,0
18875,-10,7,-4,8,-8,-8,-6,-46,0
18880,-9,13,0,6,10,7,8,-128,0
18885,-12,1,-4,-12,-5,-7,-8,-61,0
18890,-1,-8,1,-9,-14,-1,-16,-66,0
18895,10,-5,-5,-9,1,1,-1,-81,0
18900,-86,-22,-2,-8,-3,5,3,-121,0
18905,88,-18,2,-4,-9,-4,-7,-42,0
18910,67,-9,5,-3,3,-4,-1,127,0
18915,56,-3,5,-5,-1,-1,4,-30,0
18920,-90,5,4,6,-5,-1,7,-33,0
18925,-128,2,-13,4,3,4,11,62,0
18930,-126,17,0,6,-4,-6,-4,127,0
18935,-95,8,2,-1,0,-2,0,-51,0
18940,12,6,-5,-5,5,4,4,-102,0
18945,57,-4,0,3,2,8,-7,40,0
18950,115,-4,-1,-4,0,4,-6,63,0
18955,73,-21,4,-7,0,1,-6,-39,0
18960,108,-11,1,-12,-9,0,-1,-87,0
18965,73,8,3,0,8,-5,0,33,0
18970,43,-1,1,3,3,0,10,60,0
18975,40,4,0,2,4,5,9,-15,0
18980,63,3,-2,1,-3,-3,2,-68,0
18985,31,7,-1,7,7,-3,2,23,0
18990,17,1,2,0,2,3,4,-128,0
18995,16,-1,-6,2,-1,1,0,-37,0
19000,27,-14,-7,-2,-7,-7,0,-75,0
19005,-9,5,1,1,-1,1,1,-78,0
19010,12,12,2,5,7,-3,4,-13,0
19015,17,8,-1,-2,-4,0,0,41,0
19020,1,-2,-3,1,4,-1,-3,28,0
19025,-10,6,-7,-8,-2,-1,-8,-12,0
19030,9,-4,-3,-5,-2,2,-2,-27,0
19035,7,-8,-2,-6,-2,-2,-5,12,0
19040,-7,-12,-2,1,1,1,-9,74,0
19045,-5,-5,2,-6,-13,-8,-6,-33,0
19050,12,3,3,0,-3,2,1,-53,0
19055,-9,-9,-4,3,2,0,2,31,0
19060,-1,-5,-2,-3,-6,-9,-6,45,0
19065,7,1,4,0,-4,1,-3,-33,0
19070,-6,-1,0,-6,0,5,3,-40,0
19075,-5,-2,-4,0,-5,-3,1,39,0
19080,13,0,3,-2,-9,-3,-1,29,0
19085,-2,4,-4,5,-1,-1,2,-33,0
19090,-7,7,-3,1,-4,-1,-1,-8,0
19095,-3,-1,3,4,1,3,-2,18,0
19100,4,1,-5,0,-5,-7,-2,14,0
19105,-8,4,-5,-3,2,0,4,-15,0
19110,-6,-3,-4,-3,3,9,0,-15,0
19115,0,-7,-4,-8,0,-4,-5,9,0
19120,5,-8,-1,-3,2,-1,-4,11,0
19125,-7,-5,-1,-7,-4,-6,-5,-9,0
19130,-5,1,1,0,3,3,0,-12,0
19135,0,1,2,-2,-3,1,4,7,0
19140,-1,3,-4,-9,-4,0,-1,18,0
19145,-1,-1,-1,-2,-9,-1,-1,-11,0
19150,-5,-4,-1,-3,4,2,-1,-20,0
19155,-3,-4,-6,-4,-2,-3,-2,5,0
19160,-1,-5,-6,-2,-2,-2,2,17,0
19165,-2,-8,-1,0,-6,-2,1,-14,0
19170,-1,4,-7,-1,-7,-1,-2,-15,0
19175,-1,-2,0,-3,3,-4,-2,9,0
19180,3,3,-1,1,-2,1,1,8,0
19185,-1,6,4,1,3,0,4,-12,0
19190,-6,-6,-1,0,-1,-2,-6,-5,0
19195,-1,-5,0,-6,-6,3,4,4,0
19200,7,4,3,-1,-3,-7,-6,9,0
19205,-5,2,0,5,-2,1,-4,-5,0
19210,-4,-1,-1,-7,-3,-2,-2,-6,0
19215,1,-1,-2,-5,-2,0,1,3,0
19220,-3,-5,1,2,10,3,3,4,0
19225,-2,-7,-4,-5,-4,-5,-7,-9,0
19230,-4,1,4,1,4,1,3,-6,0
19235,-2,1,1,1,5,-3,-2,0,0
19240,0,1,0,-4,-7,-1,0,11,0
19245,3,1,-3,8,-1,2,2,-6,0
19250,-3,-6,1,-5,0,-2,-2,-9,0
19255,1,4,-4,4,-1,8,6,5,0
19260,0,-2,1,-6,-2,-1,-6,3,0
19265,1,-9,4,7,-2,-7,-3,-7,0
19270,0,-4,-1,11,1,-6,-5,-8,0
19275,0,14,-2,0,-7,-5,-2,2,0
19280,3,16,-1,4,5,-5,5,3,0
19285,3,15,-4,-2,-4,-2,-3,-3,0
19290,-2,5,-5,0,3,2,7,-6,0
19295,-8,-8,-1,-4,-7,2,-2,-1,0
19300,-7,7,-5,1,-10,2,-5,10,0
19305,2,-1,3,-6,2,-2,-7,2,0
19310,-2,-5,0,-10,2,1,-1,-7,0
19315,-8,-11,-1,9,-2,-7,3,3,0
19320,2,-8,4,-6,-6,-7,-3,-3,0
19325,-3,11,-1,-9,-2,3,-3,-6,0
19330,0,3,-2,-4,-8,0,-2,2,0
19335,-8,-13,-1,-10,0,4,1,0,0
19340,-5,3,-4,0,-2,-1,-1,1,0
19345,2,-3,0,-7,-3,0,0,4,0
19350,2,1,1,3,2,1,-3,-2,0
19355,-4,-19,-1,-1,-3,2,-4,-1,0
19360,-5,-18,2,-4,-2,1,-4,5,0
19365,6,4,-1,-14,-3,5,-2,-5,0
19370,1,1,0,1,2,-4,-1,0,0
19375,0,-3,-2,3,0,-2,6,1,0
19380,-3,8,-1,-2,-4,-6,-3,-7,0
19385,6,-2,3,-1,-2,-4,2,1,0
19390,6,1,-1,4,-5,-8,3,-2,0
19395,-12,3,7,6,1,0,0,-3,0
19400,-5,-5,3,2,-4,-5,-4,-1,0
19405,3,-1,2,9,2,-7,-4,2,0
19410,35,0,7,6,2,-1,-4,-4,0
19415,-7,2,-11,0,3,-8,-4,3,0
19420,-63,1,-11,6,2,-7,0,-5,0
19425,11,19,2,8,-2,0,0,-4,0
19430,59,-13,-6,-11,-3,2,-1,1,0
19435,-82,4,6,-4,1,9,-6,-1,0
19440,-51,-10,2,-2,-4,2,-2,-5,0
19445,53,-21,-2,-11,-2,1,-4,0,0
19450,55,-11,-3,-9,-3,8,3,-6,0
19455,-40,-5,2,-9,-5,1,-3,1,0
19460,-91,7,0,-9,-6,-4,-17,0,0
19465,42,-17,-3,-1,3,2,-4,-5,0
19470,52,-11,-2,0,1,2,0,5,0
19475,-46,23,-6,-8,-6,-6,4,-7,0
19480,-80,13,1,5,0,0,6,-9,0
19485,52,0,-8,3,-1,-7,6,-12,0
19490,-125,-7,0,6,3,-1,3,-1,0
19495,-59,10,0,3,4,-5,-6,-1,0
19500,18,-10,-2,1,7,-4,-6,1,0
19505,18,-6,-3,-2,1,-5,0,-2,0
19510,29,4,-7,-3,-8,0,-7,4,0
19515,86,0,3,4,-3,3,-3,-1,0
19520,127,2,3,5,-1,-2,1,-3,0
19525,13,-6,0,4,0,-4,5,4,0
19530,-7,0,5,4,4,3,8,-1,0
19535,65,11,1,-2,2,1,7,2,0
19540,107,11,-4,-4,6,3,5,-1,0
19545,-32,21,-5,3,-1,1,-2,0,0
19550,-28,8,-2,-1,-2,1,-3,-7,0
19555,77,0,-1,2,8,0,-6,1,0
19560,44,-18,-1,-7,-6,-1,0,0,0
19565,-48,-22,-2,-5,-1,-5,4,-3,0
19570,-7,-13,5,-7,-5,-6,2,-2,0
19575,41,-7,0,-2,2,-6,-3,-1,0
19580,37,-3,0,5,4,0,-2,1,0
19585,73,-9,0,3,5,2,-2,2,0
19590,127,-12,-5,-1,-6,-1,-2,-1,0
19595,127,-15,3,-3,-6,0,-1,0,0
19600,127,-10,-3,-6,3,-1,-12,2,0
19605,24,-9,-5,-12,-7,-4,-11,-3,0
19610,98,-5,1,-4,-1,3,-4,-3,0
19615,-102,8,7,-1,-10,-6,-2,-1,0
19620,-101,16,-1,-4,-5,-2,2,-4,0
19625,-128,2,-8,1,-3,-1,3,-2,0
19630,-128,4,-4,0,0,-5,1,-3,0
19635,-73,0,-7,-11,-4,0,-1,-6,0
19640,-92,8,-3,-6,-11,-8,-1,3,0
19645,-111,15,-1,-3,-1,6,2,5,0
19650,-42,4,-2,-5,-3,-5,2,-7,0
19655,-46,-8,-1,-10,-8,-8,-5,-108,0
19660,-91,-4,1,5,1,-7,-5,-121,0
19665,-128,-23,1,11,0,0,2,-86,0
19670,-64,7,-5,-6,2,2,-2,2,0
19675,46,13,0,0,-3,3,1,75,0
19680,80,1,2,-1,0,-4,-5,105,0
19685,84,6,2,0,-1,-4,3,86,0
19690,54,-23,0,11,3,-3,7,82,0
19695,63,-7,-7,-1,5,6,-1,127,0
19700,52,7,-12,-8,-3,1,-2,124,0
19705,63,9,1,9,7,2,3,85,0
19710,13,1,2,-2,-2,0,-7,122,0
19715,19,1,-2,-3,-2,-1,3,121,0
19720,29,-2,-3,3,2,-1,0,14,0
19725,28,3,-4,-3,1,-7,0,-68,0
19730,-6,20,5,-6,-5,-8,3,-98,0
19735,14,-21,6,8,1,2,-2,28,0
19740,126,0,-2,0,10,16,0,-35,0
19745,127,-1,-3,3,-4,3,-11,-54,0
19750,108,12,4,25,-1,-2,4,-90,0
19755,-7,-18,-5,-3,-1,10,6,-49,0
19760,31,-6,-4,-7,8,-6,-4,60,0
19765,83,-1,3,-4,1,4,-3,-34,0
19770,54,-19,-3,-9,2,-10,-6,-92,0
19775,-66,18,-4,3,-3,-4,-3,-33,0
19780,-29,-13,-3,7,-2,1,10,-107,0
19785,56,-9,-2,-3,0,-10,0,-97,0
19790,115,8,6,-8,-5,-7,-1,-86,0
19795,32,-8,-1,9,0,5,-2,54,0
19800,-87,0,1,-11,-10,-5,-2,101,0
19805,-88,-3,0,-25,-1,-15,0,-32,0
19810,-128,-11,-6,0,8,4,2,-108,0
19815,-54,-9,-6,17,10,6,1,-128,0
19820,4,16,0,7,6,6,-4,-6,0
19825,-123,4,-1,-10,-5,1,3,-68,0
19830,-117,7,-6,-2,-10,4,1,1,0
19835,-42,16,-2,-4,0,10,4,-25,0
19840,-44,-19,0,4,10,-1,3,45,0
19845,1,-9,3,2,4,-5,-4,127,0
19850,-1,8,-2,-3,5,1,-1,127,0
19855,3,10,1,6,6,-2,0,-84,0
19860,23,-1,1,12,5,7,11,-127,0
19865,15,-19,-3,16,5,-2,-1,-8,0
19870,-32,3,-9,-14,1,13,-2,-72,0
19875,42,6,-5,-2,-6,-1,-1,-125,0
19880,21,4,-3,-4,-10,-18,-8,-128,0
19885,-12,5,6,-3,-7,6,-4,75,0
19890,-13,-20,1,6,-4,2,-6,-65,0
19895,33,8,-3,7,1,-4,4,-102,0
19900,6,5,-1,-13,-1,3,2,-39,0
19905,-12,4,-9,4,-5,-3,-1,92,0
19910,115,-13,1,6,0,2,-2,-46,0
19915,113,-9,0,-6,4,6,4,-89,0
19920,79,7,2,12,-5,2,12,20,0
19925,111,15,-6,-2,1,1,1,53,0
19930,22,24,-8,-11,-5,-2,2,7,0
19935,-71,9,-3,-1,-2,-9,2,-88,0
19940,-32,-25,-5,8,3,8,4,6,0
19945,60,-16,-6,-6,9,1,-7,39,0
19950,-4,-6,-7,-3,-5,-5,-4,2,0
19955,-67,-3,4,2,4,-8,-2,-40,0
19960,-48,0,0,0,1,-2,-3,5,0
19965,70,-4,2,-6,-6,3,-8,26,0
19970,61,-10,2,1,-5,-6,-6,-26,0
19975,-41,-12,9,-3,-3,-7,-5,-35,0
19980,35,8,4,-3,-2,1,1,-90,0
19985,76,-2,-6,2,-1,4,1,1,0
19990,59,0,-2,1,4,-5,-4,1,0
19995,-15,2,3,5,5,6,0,-26,0
20000,65,9,9,8,5,0,-2,-100,0
20005,45,3,6,-1,3,4,1,7,0
20010,7,2,2,0,12,12,10,-2,0
20015,-30,5,6,15,13,-3,0,-27,0
20020,-8,18,4,17,10,8,5,-50,0
20025,48,11,5,1,0,3,8,-5,0
20030,5,-9,9,4,10,-1,2,-7,0
20035,-27,11,3,11,0,10,4,-24,0
20040,-49,1,6,-14,4,5,-6,-43,0
20045,24,-18,10,21,2,-7,-3,-3,0
20050,14,33,1,-8,0,16,4,15,0
20055,-18,-21,11,5,8,-6,-6,-22,0
20060,-8,47,-1,8,-3,9,6,2,0
20065,8,-29,6,0,9,-3,-4,-3,0
20070,-48,43,-2,1,-4,12,7,12,0
20075,-14,-43,5,12,13,-7,-8,-19,0
20080,-1,44,0,-12,-11,14,5,58,0
20085,24,-31,5,38,12,-13,-8,-1,0
20090,-61,24,0,-20,-1,5,9,-1,0
20095,-27,5,7,38,18,-1,-5,-20,0
