Timestamp, Rotation x, Rotation y, Rotation z
20,7.4375,-2.875,-21.8125,
50,24.5,-10.625,-25.3125,
70,52.375,-23.25,-31.0625,
90,35.6875,-32.8125,-43.1875,
110,-2.875,-36.9375,-55.25,
120,-12.0625,-39.3125,-63.625,
120,5.5,-40.3125,-70,
160,32.0625,-44.75,-72.375,
180,38.75,-45.5625,-70.25,
200,29.125,-43.5,-64.5,
220,16.0625,-37.0625,-60.875,
240,11.8125,-28.875,-55.625,
260,16.6875,-25,-45,
280,19.875,-21.5625,-34.8125,
300,18.125,-17.1875,-25.9375,
320,12.75,-11.6875,-18.1875,
340,10,-6.125,-15.75,
360,13.75,-5.5,-11.75,
380,14.875,-5.4375,-7.125,
400,9.375,-2.1875,-3.8125,
420,6.125,0.25,0.5625,
440,5.1875,3.125,2.9375,
460,8.125,5.625,3.125,
480,8.9375,7.25,3.875,
500,9.875,6.5,8.1875,
520,6.3125,6.1875,10.5,
540,-0.5625,6.875,11.0625,
560,1,6.875,10.1875,
580,2.125,8.4375,9.0625,
600,1.5625,8.25,7.875,
620,2,6.75,7.6875,
640,-1.5625,6.375,7.375,
660,-3.1875,7.8125,6.25,
680,-0.1875,6.8125,5.5,
700,0.3125,5.25,4.6875,
720,0.0625,5.5,4.125,
740,2.25,3.875,5.25,
760,2,1.5625,2.875,
780,0.125,0.4375,1.3125,
800,-1.125,-0.625,2.125,
820,-1.25,-0.75,2.75,
840,-2.375,-0.6875,2.25,
860,-2.5,-0.75,1.5625,
880,0.25,-0.5,0.0625,
900,3.9375,-2,-0.4375,
920,1.8125,-2.9375,-0.625,
940,-3.125,-1.5625,-0.375,
960,-1.375,-1,0,
980,0.5625,-1.0625,0.6875,
1000,2.375,-1.1875,0.125,
1020,2.5,-1,-0.5625,
1040,2.1875,-2.3125,-0.4375,
1060,1.0625,-2.4375,-0.125,
1080,-0.8125,-1.4375,-0.1875,
1100,-2.25,-1.4375,0.375,
1120,-1.875,-1.8125,0.6875,
1140,0.1875,-1.125,1.1875,
1160,-0.1875,-1.875,0.875,
1180,0.3125,-2,1.125,
1200,-2,-1.6875,0.9375,
1220,-2.6875,-0.8125,1.25,
1240,-2.5625,-0.75,2.125,
1260,-1.3125,-1.1875,1.5,
1280,-0.625,-1.25,-0.0625,
1300,0.3125,-1.375,-0.1875,
1320,1.5,-1.4375,-0.5,
1340,0.125,-1.5625,0.0625,
1360,-0.8125,-0.6875,0.6875,
1380,-1.4375,-0.375,0.4375,
1400,-1,-0.1875,0.875,
1420,-0.625,0.25,0.5625,
1440,0.5625,0.1875,0.3125,
1460,1.4375,0.125,0.25,
1480,-0.3125,0.25,1.4375,
1500,-1.0625,0.5625,0.0625,
1520,-1.4375,0.25,0.375,
1540,-1.3125,0.0625,0.75,
1560,-2.0625,0.125,0.3125,
1580,-1.875,-0.625,-0.125,
1600,-1.25,-0.5,-1,
1620,-0.625,-1.125,-1.625,
1640,-0.0625,-1.625,-1.625,
1660,1.5625,-1.375,-1.875,
1680,0.375,-0.5625,-0.8125,
1700,-0.1875,-0.625,-1.125,
1720,-0.5625,-1.4375,-0.625,
1740,-0.5,-1.1875,-0.5,
1760,1.125,-1.25,0.625,
1780,-0.0625,-1.25,0.8125,
1800,-1.3125,-1.125,0.375,
1820,0.4375,-0.6875,0.6875,
1840,1.8125,-0.5,1.5625,
1860,1.3125,-0.5,2,
1880,0.375,-0.375,1.8125,
1900,-1.125,-0.75,1.9375,
1920,-0.625,-0.8125,1.4375,
1940,-0.875,-1.0625,0.5,
1960,0,-1.1875,1,
1980,1.25,-1.625,1.0625,
2000,-0.375,-1.375,1.0625,
2020,-1.9375,-0.6875,1.125,
2040,-2.3125,0.5,1.75,
2060,-0.5,1.0625,3.0625,
2080,0.3125,2,3.4375,
2100,1.6875,1.5,3.9375,
2120,0.875,1.75,5,
2140,-1.5625,2.375,4.6875,
2160,-1.375,2.625,4.5,
2180,0.3125,1.125,3.4375,
2200,1.0625,1.4375,2.125,
2220,1.6875,0.3125,1.5,
2230,-0.8125,0.1875,0.5,
2250,-2.5625,0.9375,-0.375,
2270,-0.5625,1,-0.3125,
2290,3.0625,0.9375,-0.5,
2310,2.125,1.375,-1,
2330,-1.875,2.5,-2,
2350,-1.5,3.625,-3.75,
2370,1.5,4.75,-5,
2390,3.3125,7.1875,-6,
2410,5.25,9.625,-8.375,
2430,9.5625,12.5625,-11.1875,
2450,14.25,16,-14.3125,
2470,14.6875,17.1875,-18.3125,
2490,14.1875,17.5625,-20.375,
2510,12.5625,17.9375,-22.375,
2530,12.375,19.375,-23.25,
2550,17.75,19.25,-22.5625,
2570,14.6875,20.8125,-23.625,
2590,7.625,22.1875,-24.625,
2610,13.875,24.625,-27.5,
2630,23.1875,23.25,-29.8125,
2650,17.1875,21.0625,-32.375,
2670,6.5625,21.75,-34.75,
2690,7.375,21.8125,-37.3125,
2710,14.1875,20.3125,-37.5625,
2730,11,21.5625,-39.125,
2750,12.3125,21.125,-39.125,
2770,14,17.6875,-42.375,
2790,10.5,13.0625,-46.5625,
2810,1.9375,9.125,-49.9375,
2830,0.1875,2.125,-48.75,
2850,-2.75,-8,-50.25,
2870,-3.125,-16.1875,-55.3125,
2890,-1.6875,-21.9375,-58.375,
2910,4.9375,-27.1875,-55.8125,
2930,9.25,-38.375,-52.875,
2950,8.3125,-49.1875,-55.125,
2970,5.0625,-52.875,-57.75,
2990,8.6875,-59.1875,-54.625,
3010,13.375,-68.3125,-49.9375,
3030,10.9375,-73.875,-46.75,
3050,6.8125,-77.75,-42.4375,
3070,10.625,-80.3125,-36.9375,
3090,13,-81.4375,-27.8125,
3110,9.75,-81.625,-16.375,
3130,11,-76.75,-7.25,
3150,18.8125,-72.875,4.4375,
3170,21.625,-67.5625,17.75,
3190,19.375,-60.875,29.8125,
3210,13.8125,-54.125,39.25,
3230,6.4375,-47.4375,45.25,
3250,3.875,-40.375,49.8125,
3270,7,-32.25,59.3125,
3290,7.8125,-27.375,70.5,
3310,-0.375,-20.1875,77.1875,
3330,-10.0625,-12,80.4375,
3350,-7.0625,-4.4375,84.5,
3370,-2.75,5.125,87.9375,
3390,1.9375,16.0625,88.4375,
3410,2.9375,27.6875,84.1875,
3430,1.1875,39.125,79.625,
3450,11.6875,50.5,75.9375,
3470,26.9375,77.5,69.625,
3490,32.5625,82.125,66.375,
3510,20.0625,78.125,68.125,
3530,18.125,73,58.5,
3550,18.5,72.125,46.1875,
3570,19.3125,72.125,41.625,
3590,24.0625,71,35.75,
3610,12.375,69.125,22.9375,
3630,-10.9375,70.25,10.1875,
3650,-11.125,65.8125,4.0625,
3670,3.5,59.125,-4.75,
3690,2.5625,53.375,-14.5,
3710,-7.4375,51.75,-23,
3730,-4.1875,54.9375,-28,
3750,8.1875,51.5,-31.6875,
3770,12.8125,46.75,-38.5625,
3790,6.6875,43.9375,-47.3125,
3810,4.125,41.4375,-52.0625,
3830,8.0625,34.1875,-53.875,
3850,7.5,25.125,-54.6875,
3870,11.9375,15.75,-58.375,
3890,10.1875,7.5,-60.75,
3910,8.5,-1.875,-61.5625,
3930,7.75,-12.5,-61.0625,
3950,2.3125,-22.4375,-62.875,
3970,-2.3125,-31.875,-60,
3990,-3.4375,-40.1875,-56.6875,
4010,-3.8125,-45.0625,-54.875,
4030,-1.0625,-52.8125,-49.8125,
4050,-2.1875,-59.0625,-43.9375,
4070,-5.3125,-62.5625,-37.6875,
4090,-6.5,-62.5625,-30.6875,
4100,-6.125,-62.4375,-22.25,
4120,-0.25,-63.9375,-12.5625,
4140,4.1875,-65.75,-4.1875,
4160,2.375,-63.5625,3.1875,
4180,-4.0625,-59.5625,11.9375,
4200,-5.5,-55.5625,21.4375,
4220,-2.8125,-50,29.75,
4240,-1.3125,-44,38.3125,
4260,1.3125,-36.25,44.625,
4280,-1.8125,-31.4375,50.625,
4300,-5.125,-28.5,56.6875,
4320,-10.5625,-24.1875,63,
4340,-9.3125,-17,66.75,
4360,-9.4375,-10.75,69.625,
4380,-10.8125,-6.3125,70.5625,
4400,-12.3125,2.75,72.9375,
4420,-6.8125,10,74.5,
4440,-4.0625,16.8125,74.3125,
4460,-8.3125,26.5,70.0625,
4480,-4.625,32.875,65.4375,
4500,7.5625,44.5,61.75,
4520,20.125,51.1875,55.8125,
4540,5.875,54,50.125,
4560,-20.1875,54.125,44.875,
4580,-25.0625,59.9375,37.75,
4600,-0.8125,63,35.4375,
4620,25.0625,62.125,27.1875,
4640,21.125,60.4375,12.9375,
4660,-1.1875,61.5,-2.875,
4680,4.875,60.25,-12.1875,
4700,18.5,58.0625,-24.0625,
4720,15.5,54.6875,-33.9375,
4740,12.125,51.6875,-47.0625,
4760,17.25,50.125,-57.3125,
4780,32.875,42.75,-64.25,
4800,27.5625,29.5,-71,
4820,16.1875,16.875,-80.0625,
4840,11.5,6.5,-88.125,
4860,16.4375,-1.6875,-93.6875,
4880,20.0625,-15.9375,-96.0625,
4900,22.625,-28,-97.5,
4920,27.4375,-39.6875,-96.25,
4940,28.3125,-46.5,-93.0625,
4960,29.875,-52.125,-83.25,
4980,36.5,-57.25,-69.0625,
5000,45.375,-60.5625,-58,
5020,53.625,-61.375,-45.3125,
5040,54.5625,-65.4375,-30.0625,
5060,46.0625,-69,-15.625,
5080,35.625,-69.5625,-4.875,
5100,29.1875,-68.5625,5.875,
5120,23.8125,-65.875,17.6875,
5140,17.75,-60.8125,28.375,
5160,12.625,-59.3125,36.5,
5180,7.8125,-55.75,42.625,
5200,5.75,-53,48.5625,
5220,1.375,-47.8125,54.8125,
5240,-1.3125,-41.625,62.1875,
5260,-3.625,-36.375,68.125,
5280,-11.6875,-30.375,72.5,
5300,-23.0625,-20.875,74.0625,
5320,-34.25,-9.6875,77.25,
5340,-35.4375,0.0625,78.6875,
5360,-24.4375,10.125,79.25,
5380,-14.9375,24.5,78.9375,
5400,-10.75,37.0625,81.75,
5420,-3.8125,43.625,82.625,
5440,-6.8125,51.9375,75.4375,
5460,-19.0625,63.0625,68.875,
5480,-21.75,66.6875,68.0625,
5500,-2.5625,68.625,63.375,
5520,2.375,67.1875,53.5,
5540,-14.75,66.0625,40.4375,
5560,-25.5,64.6875,26.375,
5580,-15.5,62.4375,17,
5600,2.5625,60.5625,6.3125,
5620,7.375,60.25,-7.8125,
5640,7.625,58.8125,-23.5625,
5660,13.625,52.75,-33.5,
5680,14.5,45.5625,-40.1875,
5700,18.125,38.875,-47.25,
5720,14.8125,36.375,-55.1875,
5740,16.125,32.9375,-60.0625,
5760,32.0625,22.4375,-60.75,
5780,40.375,9.3125,-62.4375,
5800,30.3125,0.3125,-66.1875,
5820,20.1875,-11.5625,-66.5,
5840,16.6875,-21.3125,-66.0625,
5860,10.25,-30.3125,-64.0625,
5880,10.8125,-40.8125,-60.5625,
5900,9.9375,-50.3125,-57.5625,
5920,6.3125,-57.25,-55.875,
5940,5,-64.125,-50.8125,
5960,5.3125,-69.625,-43.625,
5980,10.4375,-73.4375,-35.5,
6000,11.25,-72.625,-28.5625,
6020,16.0625,-69.6875,-20.4375,
6040,30.6875,-65.1875,-10.8125,
6060,47.6875,-61.125,3.125,
6080,48.625,-58.3125,15.25,
6100,28.5625,-54.75,24,
6120,10.375,-50.9375,28.125,
6140,9.875,-46.9375,33.5625,
6160,15.4375,-42.5625,40.0625,
6180,15.1875,-34,47.875,
6200,10.8125,-26.5,57.4375,
6220,7.1875,-18.125,67.0625,
6240,-1.25,-11.625,76.3125,
6260,-12,-2.375,80,
6280,-18,8.9375,80.5625,
6300,-16.125,16.125,82.5,
6320,-12.125,25.375,84,
6340,-11,38.875,81.75,
6360,-12.8125,54.4375,78.1875,
6380,-8.375,63.75,79.0625,
6400,7.6875,78.3125,74.3125,
6420,30.9375,85.125,67.0625,
6440,51.5625,84.8125,60.375,
6460,62.6875,83.9375,45.9375,
6480,48.5,81.0625,26.625,
6500,34.25,76.8125,7.6875,
6520,23.4375,69.3125,-14.75,
6540,5.0625,63.8125,-32.8125,
6560,-2.3125,58.5,-43.625,
6580,4.875,50.625,-52.8125,
6600,18.75,44.875,-59.625,
6620,18.1875,39.3125,-66.625,
6640,22,34.25,-71.6875,
6660,32,23.5,-76.1875,
6680,28.3125,14.375,-77.375,
6700,20.25,1.6875,-81.4375,
6720,11.8125,-7.875,-90.0625,
6740,6.8125,-16.6875,-94.625,
6760,-1.8125,-30.1875,-93.8125,
6780,5.8125,-45.0625,-88.8125,
6800,10.9375,-55.9375,-87.75,
6820,11.125,-65.0625,-85.125,
6840,8.1875,-71.6875,-75.1875,
6860,2.6875,-73.5625,-65.25,
6880,1.125,-73.5625,-53.125,
6900,4.8125,-73.4375,-40.9375,
6920,7.4375,-72.1875,-28.1875,
6940,8.5625,-70.6875,-15.375,
6960,4.5625,-68.9375,-3.625,
6980,-2.75,-65.6875,9.375,
7000,-8.75,-62.25,20.1875,
7020,-11.0625,-56.0625,28.875,
7040,-11.875,-51.4375,38.6875,
7060,-11.6875,-45.5,47.6875,
7080,-13.75,-39.5,53.5,
7100,-14.5,-36.125,59.3125,
7120,-16.4375,-30.9375,61.5625,
7140,-23.3125,-23.875,64.5625,
7160,-19.1875,-16.5625,70.25,
7180,-9.3125,-7.6875,74.1875,
7200,-8.375,2.75,74.875,
7220,-11.5,14.3125,73.6875,
7240,-5.6875,27,73.4375,
7260,11.875,34.9375,73.6875,
7280,21.375,41.6875,70.8125,
7300,12.875,49.125,63.375,
7320,-3.375,58.875,58.625,
7330,-2.5,64.375,55.3125,
7350,10.5,68.25,51.9375,
7370,9.375,75.25,41.1875,
7390,1.625,77.375,25.8125,
7410,13.4375,73.75,13,
7430,29.3125,68.875,0.75,
7450,32.8125,63.75,-12.375,
7470,25.125,60.875,-25.1875,
7490,24.875,51.25,-35.4375,
7510,24.375,40.5,-47.25,
7530,10.125,30.25,-60.875,
7550,4.75,20.125,-69,
7570,13.875,11.875,-75,
7590,25.875,-2.375,-74.8125,
7610,22.5,-15.6875,-77.6875,
7630,12.75,-26.5,-79.6875,
7650,4.5625,-38,-79.6875,
7670,2,-47.75,-75.4375,
7690,-0.5,-57.1875,-69.8125,
7710,-2.25,-64.6875,-63.5625,
7730,3.9375,-68.6875,-55.375,
7750,8.9375,-70.5,-42.875,
7770,9.1875,-70.5625,-29.375,
7790,8.0625,-68.4375,-18.6875,
7810,9,-64.875,-8.5625,
7830,9.125,-64.0625,2.125,
7850,9.3125,-62,10.9375,
7870,9.5,-61.4375,23.0625,
7890,0.5,-57.25,35.1875,
7910,-10.6875,-52.5625,44.3125,
7930,-16.3125,-44.625,50.0625,
7950,-11,-35.8125,56.375,
7970,-3.0625,-28.4375,62.25,
7990,-6,-19.9375,65.75,
8010,-12.375,-9.5625,66.75,
8030,-14.8125,1.125,70.625,
8050,-10.625,13.0625,73.8125,
8070,3.5625,20.75,76.375,
8090,13.6875,30.375,74.5625,
8110,7.625,45.5,67.75,
8130,-1.5625,53.3125,64.5625,
8150,-0.4375,56.1875,60.75,
8170,5.625,57.75,53.1875,
8190,6.5,63.375,43.6875,
8210,5.1875,65.625,32.4375,
8230,-4.4375,68.625,20.8125,
8250,-7,71.3125,8.875,
8270,3.3125,70.9375,2,
8290,11.1875,69.875,-9.6875,
8310,13.375,68.625,-22.0625,
8330,12.1875,65.25,-35.8125,
8350,9.1875,59.6875,-45.375,
8370,15.8125,54.3125,-53.1875,
8390,30.5625,46.625,-57,
8410,22.4375,32.6875,-61.3125,
8430,5.0625,18.625,-67.75,
8450,2.6875,5.875,-71.8125,
8470,4.3125,-6.1875,-71.3125,
8490,6.5625,-19.8125,-68.9375,
8510,6,-34.25,-64.8125,
8530,2.25,-44.4375,-62.4375,
8550,1.625,-52.9375,-57.6875,
8570,3.375,-59,-51.25,
8590,7.6875,-65.25,-44.375,
8610,12.375,-69.625,-38.125,
8630,19.1875,-72.0625,-31.8125,
8650,22.3125,-73.25,-22.375,
8670,19.5,-73.125,-11.5,
8690,14.875,-72.1875,-3.125,
8710,10.5,-68.75,6.125,
8730,7.25,-62.0625,16.1875,
8750,11.375,-56.75,28.125,
8770,10.5625,-51,33.9375,
8790,4.375,-43.8125,38.6875,
8810,-1.125,-38,46.0625,
8830,-10.375,-30.8125,50.8125,
8850,-13.0625,-26.875,56.125,
8870,-17.4375,-20.4375,58.375,
8890,-24,-11.9375,61.5,
8910,-29.4375,-1.375,64,
8930,-25.8125,10.1875,67.125,
8950,-12.9375,19.1875,70.875,
8970,2.5,28.1875,72.8125,
8990,9.5625,42.625,70.6875,
9010,4.25,55.375,63.5625,
9030,-4.8125,59.5625,57.0625,
9050,-1.8125,62.875,48.4375,
9060,8.875,65.625,41.75,
9090,21.3125,68.625,31.625,
9110,16.5,68.1875,17.625,
9130,4.9375,69.375,3.3125,
9150,12,67.875,-7.9375,
9170,25.8125,64.125,-16.25,
9190,29.5,59,-27.25,
9210,18.375,52.5625,-36.1875,
9220,16.6875,50.5,-45.625,
9240,32,45.125,-50.125,
9260,34.375,31.6875,-54.1875,
9280,24.125,18,-58.375,
9300,14.9375,8.375,-64.125,
9320,12.5,-6,-63.875,
9340,9.125,-20.625,-60.8125,
9360,1.8125,-31.75,-59.25,
9380,-1.5,-40.5,-57.5,
9400,1.8125,-50.375,-52.6875,
9420,4.25,-58.25,-47.8125,
9440,4.8125,-63.6875,-41.6875,
9460,4.75,-68.25,-33.75,
9480,6.3125,-70.6875,-26.1875,
9500,8.9375,-72.5,-18,
9520,8.5,-71.875,-8.3125,
9540,8.625,-70.4375,1.4375,
9560,7,-65.3125,10.3125,
9580,2.3125,-60.9375,22.0625,
9600,-0.25,-57.3125,32,
9620,-2.6875,-50.1875,39.3125,
9640,-6.9375,-45.375,46.75,
9660,-7.8125,-40.3125,51,
9680,-8.1875,-33.375,55.8125,
9700,-14.625,-22,60.75,
9720,-27.5,-3.5,63.375,
9740,-34.1875,14.3125,61.75,
9760,-36.5,20.25,64.375,
9780,-21.75,30.875,67.5,
9800,1.5625,42,68.5625,
9820,6.25,49.5625,69.0625,
9840,5.5,57.0625,58.125,
9860,8.5625,62.8125,48.5,
9880,11.75,66.3125,41.1875,
9900,4.375,69.9375,32.9375,
9920,-6.75,72.4375,22.8125,
9940,-1.5,74.625,13.1875,
9960,12.3125,76.5625,2.875,
9980,14.8125,76.625,-8.25,
10000,10.625,73.125,-18.125,
10020,-0.25,67.25,-28.5625,
10040,1.1875,56.8125,-37.4375,
10060,0,46.6875,-51.375,
10080,-1.875,39.3125,-64.5625,
10100,16.75,29.9375,-70.1875,
10120,36.9375,14,-72.375,
10140,35.4375,-1.375,-77.1875,
10160,14.9375,-8.5,-85.375,
10180,5.875,-19.9375,-85,
10200,16.1875,-32.3125,-81.1875,
10220,22.5625,-43.625,-77.6875,
10240,23,-51.875,-76.125,
10260,16.4375,-55.5,-71.8125,
10280,14.4375,-58.375,-63.25,
10300,17.8125,-60.125,-54.6875,
10320,24.1875,-61.75,-44.8125,
10340,28.125,-61.3125,-34.8125,
10360,32.1875,-59.25,-23.0625,
10380,32,-55.9375,-10.5,
10400,26.5,-53.125,0.625,
10420,19.25,-48.625,10.5,
10440,17.6875,-46.1875,22.3125,
10460,14.75,-42.25,31.625,
10480,9.1875,-36.875,42.0625,
10500,4.5625,-31.9375,49.625,
10520,1.9375,-26.75,56.3125,
10540,-3.5625,-22,63.0625,
10560,-9.25,-19.6875,67.8125,
10580,-19.75,-14.1875,69.9375,
10600,-24.25,-11.9375,72.125,
10620,-27.875,-5.9375,69.875,
10640,-26,-1.9375,75.8125,
10660,-24.6875,4.0625,77,
10680,-28.75,13.9375,74.4375,
10700,-33.4375,23.625,70.75,
10720,-28.1875,33.625,66.6875,
10740,-14.5,42.75,63.0625,
10760,1.5,51.0625,59.0625,
10780,3.375,65.0625,49.75,
10800,-6.8125,67.9375,33.625,
10820,-20,70.4375,21.1875,
10840,-15.0625,66.4375,12.125,
10860,-9.1875,61.9375,3.4375,
10880,-2.375,57.75,-9.6875,
10900,-5.375,53.125,-22.4375,
10920,-11.6875,45.9375,-31.9375,
10940,-6.0625,39.375,-39.4375,
10960,2.5625,33.0625,-46.125,
10980,12.4375,27.0625,-53.75,
11000,17.5625,18.5,-60,
11020,22.625,7.25,-65,
11040,19.9375,-1.1875,-71.4375,
11060,16.375,-9.6875,-74.9375,
11080,20.9375,-18.625,-74.6875,
11100,28.625,-29.875,-73.125,
11120,28.9375,-38.25,-71.4375,
11140,23.4375,-44.5625,-69.6875,
11160,18.125,-49.8125,-65.75,
11180,16.4375,-52.1875,-60.3125,
11200,21.125,-53.1875,-51.625,
11220,27.375,-54.875,-43.125,
11240,26,-54.875,-36,
11260,23,-53.625,-27.125,
11280,22,-49.875,-17.8125,
11300,22.8125,-46.875,-7.5625,
11320,18.875,-43.8125,2.9375,
11340,12.75,-39.75,11,
11360,8.3125,-33.4375,20.6875,
11380,5.375,-26.4375,26.3125,
11400,-2.1875,-20.75,35.125,
11420,-10.875,-14.8125,42.125,
11440,-17.5625,-13.75,47.1875,
11460,-23,-12.625,49.4375,
11480,-27.75,-11.9375,55.5,
11500,-34.125,-9.375,57.6875,
11520,-30.75,-6.0625,59.0625,
11540,-28.1875,3.5625,58.3125,
11560,-28.5,16.6875,60.75,
11580,-24.25,30.0625,64.4375,
11600,-18.375,43.625,59.25,
11620,-7.5625,54.625,50.375,
11640,5.25,65.375,45,
11660,20.3125,80.75,35.875,
11680,10.625,85.25,23.5,
11700,-21.25,86.5625,13.125,
11720,-35.125,79.5625,0.125,
11740,-25.4375,69.75,-6.8125,
11760,-9.8125,60.3125,-13.1875,
11780,0.375,54.4375,-19.25,
11800,10.6875,47.5,-26.8125,
11820,18.8125,38.9375,-39.375,
11840,16.75,26.8125,-47.5625,
11860,17.0625,10.375,-52,
11880,20.375,-4.1875,-57,
11900,20.375,-16.875,-56.8125,
11920,20.25,-29.0625,-54.8125,
11940,25.375,-39.5625,-51.3125,
11960,27.8125,-47.4375,-48.9375,
11980,24.5,-53.8125,-44.8125,
12000,23.75,-58.8125,-38.625,
12020,30.875,-64.0625,-30.9375,
12040,30.1875,-67.0625,-24.5625,
12060,27.75,-68.0625,-16.125,
12080,27.5625,-68.375,-8.375,
12100,27,-66.8125,0.4375,
12120,22.625,-63.3125,10.4375,
12140,17.5,-57.9375,19.375,
12160,15.0625,-51.75,28.6875,
12180,12.6875,-47.1875,39.25,
12200,7.375,-41.375,50,
12220,3.75,-36.9375,59.5625,
12240,-2.1875,-31.8125,65.6875,
12260,-12.5625,-23.1875,70.125,
12280,-19.6875,-13.6875,71.0625,
12300,-21.375,-5.5,72.125,
12320,-14,5.9375,71.5,
12340,2.1875,21.1875,70.125,
12360,3.4375,36.8125,68.25,
12380,4.375,49.75,67.125,
12400,8.6875,57.1875,63.8125,
12420,7.1875,61,58.1875,
12440,-0.875,67,50.6875,
12450,-6.8125,71.6875,39.3125,
12470,-4.6875,75.875,25.75,
12490,-4.125,75.9375,8.875,
12510,-0.125,71.375,-5.4375,
12530,12.25,74.625,-22,
12550,21.125,76.8125,-33.375,
12570,20.25,71.4375,-37.25,
12590,31.25,67.3125,-44,
12610,34.4375,61.375,-53.4375,
12630,29,55.625,-59.5625,
12650,28.3125,38.4375,-61,
12670,15.3125,17.875,-62.625,
12690,10.125,8.5,-66.75,
12710,11.75,-5.875,-69.3125,
12730,7.4375,-19.875,-70.0625,
12750,-2.9375,-33.5,-69.6875,
12770,-0.75,-47.625,-66.1875,
12790,6.125,-59.0625,-63.8125,
12810,5.125,-66.625,-59.5,
12830,6.875,-73.0625,-52.8125,
12850,7.875,-76.875,-42.875,
12870,11.5625,-79,-31.5625,
12890,15.125,-78.875,-20.9375,
12910,14.3125,-76.875,-7.125,
12930,10.0625,-72.875,6.0625,
12950,9.9375,-69.5625,18.8125,
12970,5.5625,-63.5625,32.0625,
12990,-2.1875,-57.5625,46.625,
13010,-13.1875,-50.3125,57.4375,
13030,-21.125,-42.625,65.4375,
13050,-19.625,-36.125,74.25,
13070,-19.1875,-30.4375,80.25,
13090,-22.6875,-19.4375,83.75,
13110,-24.5,-5.875,83.1875,
13130,-18.6875,8.5,84.25,
13150,-7.75,20.5625,87.9375,
13170,5.9375,33.875,83.9375,
13190,10.75,44.375,74.6875,
13210,9.6875,52.125,63.3125,
13230,16.875,57.4375,58.875,
13250,26.625,63.5625,54.8125,
13270,21.6875,72,47.25,
13290,-3.8125,77.375,35.6875,
13310,-6.75,77.75,21.8125,
13330,15.3125,76.375,8.5,
13350,25.625,70.3125,-7.8125,
13370,14.25,59.0625,-26.9375,
13390,-8.625,50.125,-42.875,
13410,-8.125,43.5,-56.5,
13430,7,39.5,-65,
13450,21.8125,36.125,-68.9375,
13470,33.75,30.0625,-70.6875,
13490,33.5625,20.375,-70.5625,
13510,25.4375,13.5625,-73.8125,
13530,23.4375,5.4375,-75.1875,
13550,26.1875,-4.125,-73.0625,
13570,27.1875,-19.0625,-70.1875,
13590,22.8125,-28.6875,-69.375,
13610,22.25,-38,-66.125,
13630,17.25,-47.75,-59.0625,
13650,9.9375,-56.3125,-53.6875,
13670,8.875,-61.5,-47.875,
13690,15.0625,-66.8125,-40.25,
13710,15.625,-69.5625,-30.875,
13730,14.9375,-70.75,-22.625,
13750,12.125,-69.25,-12.3125,
13770,11.125,-67.4375,0.125,
13790,9.8125,-64.3125,10.375,
13810,6.5,-57.5,19.625,
13830,6.125,-50.75,31.75,
13850,6.9375,-42.0625,44.6875,
13870,-2.875,-34.8125,59.375,
13890,-15.125,-30.625,70.4375,
13910,-20.9375,-25.4375,78.25,
13930,-27.625,-14.1875,82.875,
13950,-29.4375,-2.6875,85.625,
13970,-26.1875,7.5,86.8125,
13990,-11.25,18.0625,86.125,
14010,2.4375,34.75,80.875,
14030,9.5,50.3125,70.75,
14050,24.125,64.4375,60.5,
14070,51.125,74.875,50.9375,
14090,64.25,80.75,37.9375,
14110,46.75,78.0625,19.875,
14130,23.8125,73.9375,4.8125,
14150,24.5625,67.1875,-10.3125,
14170,18.9375,63.5625,-27.0625,
14190,0.625,57.3125,-42.5625,
14210,7.25,51.5,-55.8125,
14230,31.875,41.5,-59.875,
14250,34.1875,27.625,-64.9375,
14270,13.625,14.875,-71.0625,
14290,2.75,6.4375,-78.3125,
14310,12.5625,-1.625,-82,
14330,21.1875,-16.375,-77.6875,
14340,16.25,-30.25,-77.5,
14360,1.8125,-37.375,-79.375,
14380,-7.75,-45.6875,-77.3125,
14400,-5.875,-52.4375,-74.6875,
14420,3.5625,-56.625,-67.75,
14440,14.6875,-61.1875,-57.875,
14460,17.4375,-64.3125,-49.6875,
14480,14,-66.0625,-41.3125,
14500,7.5625,-65.5,-32.75,
14520,4,-63.4375,-22.25,
14540,4.4375,-60.9375,-10.875,
14560,4.25,-56.875,0,
14580,-2.375,-53.0625,12.5,
14600,-7.6875,-48.0625,26.625,
14620,-10.8125,-43.25,43.9375,
14640,-17,-36.375,60,
14660,-32,-29.125,72.5,
14680,-47.125,-21.9375,81.125,
14700,-51,-13.25,90.6875,
14720,-49.9375,-0.9375,99.75,
14740,-40.8125,10,109.063,
14760,-18.625,23.5625,118.25,
14780,22,49.75,119.813,
14800,38.25,69.6875,109.438,
14820,14.3125,73.3125,92.6875,
14840,6.8125,69.6875,72.4375,
14860,25.8125,67.875,57.375,
14880,38.9375,61.25,41.75,
14900,30.8125,56.9375,26.125,
14920,7.1875,55.4375,6.4375,
14940,0,53.875,-10.6875,
14960,17.375,48.3125,-23.75,
14980,37.5,44.5,-36.5625,
15000,40.875,42,-48.125,
15020,43.75,39.25,-57.8125,
15040,49.375,36.125,-65,
15060,59.5,30.375,-70.6875,
15080,68.9375,19.6875,-75.3125,
15100,70.6875,9.125,-80.3125,
15120,62.9375,-0.0625,-85.8125,
15140,50.9375,-12.875,-85.8125,
15160,28.125,-25.375,-84.4375,
15180,5.1875,-38.25,-82.1875,
15200,-12.375,-46.9375,-76.5625,
15220,-18.8125,-52.5625,-70.5,
15240,-17.875,-56.75,-62.25,
15260,-11.25,-57.6875,-51.3125,
15280,-2.4375,-58.1875,-39.8125,
15300,-0.5625,-57.875,-29.75,
15320,-2.5,-55.6875,-20.25,
15340,-4.625,-55,-10.9375,
15360,-9.0625,-55.6875,-3.4375,
15380,-17.1875,-56.125,4.1875,
15400,-16.9375,-57.875,12.375,
15420,-15.375,-54.1875,25.875,
15440,-18.8125,-50.9375,40.3125,
15460,-36.25,-45.5,51.3125,
15480,-46.5625,-42.1875,59.25,
15500,-45,-38.3125,65.0625,
15520,-36.375,-33.8125,70.0625,
15540,-28.625,-26.5625,76.25,
15560,-21,-14.875,81.3125,
15580,-11.75,-3.9375,83.1875,
15600,-8.375,6.875,88.125,
15620,-3.375,22,87.5,
15640,7.375,39.25,84.75,
15660,26.0625,50.75,78,
15680,41.8125,57.625,71.4375,
15700,43,60.0625,61.1875,
15720,25.5,63.8125,48.1875,
15740,9,65.125,33.9375,
15760,10.25,63.25,21.375,
15780,24.5625,59.4375,8.125,
15800,33.5,56.875,-8.375,
15820,28.375,57.3125,-25.875,
15840,27.5,54.0625,-39.125,
15860,34.9375,47.4375,-47.5625,
15880,49.5,40.125,-54.375,
15900,58.9375,34.5,-59.1875,
15920,56.3125,26.8125,-64.0625,
15940,50.9375,17.75,-69.625,
15960,43.0625,6.625,-70.8125,
15980,22.875,-3.625,-72.4375,
16000,7.0625,-13.3125,-73.6875,
16020,-0.5,-24.5,-72.4375,
16040,-2.5,-35.5,-68.3125,
16060,-3.3125,-45.3125,-62.875,
16080,-7.0625,-52.1875,-56.1875,
16100,-13.6875,-58.5,-48.5625,
16120,-22.375,-64.875,-39.875,
16140,-29.375,-69.5,-33.25,
16160,-29,-73.875,-26.5625,
16180,-22.5625,-75.0625,-18.3125,
16200,-18.9375,-75.0625,-7.8125,
16220,-21.375,-75.5625,2.75,
16240,-25.0625,-75.0625,11.1875,
16260,-27.8125,-72.9375,19.125,
16280,-25.5625,-69.1875,29.0625,
16300,-23.8125,-62.375,39.0625,
16320,-23.375,-54.8125,49,
16340,-24.1875,-45,57.0625,
16360,-25.125,-33.5,63.25,
16380,-25.5,-20.25,69.4375,
16400,-14.4375,-9.0625,79.5625,
16420,0.5625,1,87.625,
16440,11.1875,16.875,93.5,
16460,7.9375,32.75,94.875,
16480,5.4375,45.5,91.1875,
16500,7.875,52.5,83.3125,
16520,17.5625,58.0625,70.625,
16540,29.5625,67.5625,57.6875,
16560,35.3125,68.9375,42.375,
16580,48.625,67.875,29,
16600,63.625,65.5625,12.5,
16620,58.6875,61.9375,-0.3125,
16640,48.3125,56.9375,-12.75,
16660,27.4375,52.8125,-26.9375,
16680,13.4375,50.1875,-41.5625,
16700,16.75,45.875,-50.5625,
16720,21.375,40,-55.625,
16740,27.8125,32.25,-57.75,
16760,28.875,20.8125,-61.5625,
16780,22.8125,13.125,-69,
16800,27.3125,6.3125,-75.8125,
16820,41.4375,-8.875,-68.8125,
16840,43.1875,-26.5625,-62.1875,
16860,24.375,-35.3125,-58.625,
16880,-5,-42.9375,-56.1875,
16900,-28.3125,-51.375,-52,
16920,-37.6875,-57.625,-47.375,
16940,-32.75,-63.4375,-41.5,
16960,-24.3125,-67,-34.3125,
16980,-22.1875,-70.9375,-26.375,
17000,-28,-70.0625,-20.0625,
17020,-28.5,-68.6875,-14.0625,
17040,-26.1875,-68.1875,-7.1875,
17060,-24.125,-65.125,-0.625,
17080,-20.125,-62.375,10.4375,
17100,-17.3125,-59.9375,24.25,
17120,-19.25,-52.125,36.6875,
17140,-22.5,-44.25,48.5,
17160,-25.375,-39.3125,58.625,
17180,-29.1875,-30.5,63.75,
17200,-25.375,-19.375,68.8125,
17220,-11.9375,-10.4375,74.8125,
17240,1.1875,-2.75,80,
17260,3.6875,5.9375,82,
17280,0.3125,19.25,85.3125,
17300,7.375,28.3125,86.1875,
17320,16.5,36.625,79.9375,
17340,13.5,47.75,69.0625,
17360,14.3125,58.75,58.3125,
17380,36.5625,71.25,48.125,
17400,72.9375,79.3125,36.625,
17420,81.6875,78.9375,25.75,
17440,63.6875,68.6875,13.5,
17460,45.0625,61.4375,-1.3125,
17480,37.4375,58.375,-15.375,
17500,39.0625,54.0625,-29.8125,
17520,44.5625,51.5,-40.1875,
17540,48.6875,47.75,-49.375,
17560,48.625,38.75,-57.6875,
17570,43.125,31.4375,-65.625,
17590,30.8125,19.375,-69.0625,
17610,17.375,7.8125,-71.6875,
17630,12.625,-1,-74.25,
17650,9.3125,-12.3125,-73.3125,
17670,-8.375,-22.8125,-70.1875,
17690,-21.0625,-31.5,-70.4375,
17710,-22.9375,-43.4375,-67.25,
17730,-23.125,-52.75,-58.75,
17750,-31.25,-58.8125,-49.3125,
17770,-43.5625,-63.5,-41,
17790,-46.0625,-71.125,-35.4375,
17810,-37.0625,-75.6875,-29.5625,
17830,-23.875,-74.3125,-18.0625,
17850,-15.25,-72.5625,-2.5,
17870,-14,-69.625,12.0625,
17890,-21.25,-61.875,24.8125,
17910,-23.6875,-57.125,40,
17930,-20.875,-53.875,55,
17950,-22.75,-47.4375,69,
17970,-34.375,-38.9375,77.875,
17990,-48.5625,-35.5625,88.375,
18010,-50.5625,-34.5625,92.1875,
18030,-43.9375,-27,93.3125,
18050,-36.75,-14.125,96,
18070,-15,-1.125,93.9375,
18090,5.8125,12.0625,89.125,
18110,18.875,26.9375,76.1875,
18130,22.6875,44.375,63.375,
18150,37.1875,54.125,54.875,
18170,52.3125,51.125,49.5625,
18190,52.9375,51.75,38.625,
18210,30.125,58.9375,22.8125,
18230,9.3125,59.3125,6.3125,
18250,19.1875,59.1875,-5.6875,
18270,51.0625,63.5,-15.4375,
18290,79.1875,68.125,-21.4375,
18310,71.75,61.875,-26.3125,
18330,53.625,59,-41.25,
18350,58,57,-51.125,
18370,51.875,42.875,-51.9375,
18390,28.125,30.1875,-57.75,
18410,19.9375,25.4375,-65.625,
18430,25.4375,15.1875,-66.8125,
18450,7.125,-2.5625,-64.4375,
18470,-23.4375,-20.0625,-64.875,
18490,-42.4375,-35.25,-67.625,
18510,-44.4375,-46.6875,-67.9375,
18530,-42.5,-56.8125,-68.6875,
18550,-31.0625,-68,-66.5625,
18570,-19.1875,-76.75,-59.0625,
18590,-14.9375,-80.5625,-51.0625,
18610,-21.625,-77.6875,-39.25,
18630,-24.5625,-77.375,-24.375,
18650,-19.375,-77.0625,-15.3125,
18670,-9.4375,-77.5,-5.1875,
18690,-3.375,-75.0625,8.75,
18710,-5.375,-69.8125,21.625,
18730,-8.625,-62.4375,31.6875,
18750,-10.375,-54.6875,38.375,
18770,-12.5,-46.375,46.0625,
18790,-7.8125,-37.5,54,
18810,-5.6875,-28.25,61.125,
18830,-9.4375,-17.875,68.25,
18850,-17.5,-10.875,75.1875,
18870,-25.25,-3.875,81.6875,
18890,-20.25,5.375,83.625,
18910,-11.875,16.8125,87.25,
18930,-5.875,25.75,88.625,
18950,1.375,39.1875,83.75,
18970,14.125,50,69.75,
18990,7.5,55.1875,55.25,
19010,-6.5,53.125,40,
19030,-1.625,51.6875,25.5625,
19050,16.6875,50.0625,13.375,
19070,25.8125,56.625,-1.9375,
19090,23.4375,61.0625,-18.625,
19110,16.4375,64.8125,-30.25,
19130,28.0625,67.625,-38.0625,
19150,42.625,67,-41.75,
19170,46.75,64.5625,-44.375,
19190,41.375,58.875,-50.1875,
19210,30.75,46.5625,-51.1875,
19230,17.5625,34.75,-54.5,
19250,20.4375,25.625,-55.5,
19270,19.75,13.0625,-53.875,
19290,6.3125,1.875,-55.25,
19300,-1.1875,-8.625,-59.8125,
19330,-3.3125,-23,-59.875,
19350,-5.25,-37.125,-60.0625,
19370,-11.8125,-46.9375,-58.875,
19390,-13.25,-56.125,-56.5,
19410,-9.5,-62.1875,-49.875,
19430,-0.875,-67.5,-41.25,
19450,-0.25,-71,-31.4375,
19460,-4.625,-73.125,-24.25,
19480,-6.5625,-70.875,-16.8125,
19500,-1.3125,-69.875,-5.75,
19520,1.8125,-69.0625,7.4375,
19540,4.25,-64.375,18.625,
19560,4.5,-58.9375,29,
19580,-0.375,-52.75,38.5,
19600,-12.3125,-46.875,45.5,
19620,-18.375,-41.5,50.375,
19640,-16.75,-30.5625,53.75,
19660,-19.0625,-18.5625,60.375,
19680,-15,-6.5625,67.375,
19700,-0.8125,8.5,71.6875,
19720,3.5625,25.5625,75.5,
19740,3.5,37.9375,79.1875,
19760,7.3125,49.5625,76.8125,
19780,10.125,56.4375,72.6875,
19800,9.375,60.875,64.3125,
19820,11.125,65.75,54.75,
19840,20.625,71.3125,47.5,
19860,29.5625,72.625,35,
19880,26.4375,69.5625,16.875,
19900,15,68,-3.0625,
19920,18,66.125,-20.4375,
19940,32.5,58.5,-34.5625,
19960,37.1875,47.9375,-45.5,
19980,27.375,36.625,-57.5625,
20000,13.125,31.9375,-65.6875,
20020,17.125,25.375,-69.75,
20040,32.75,18.75,-71.1875,
20060,38.75,7.9375,-68.75,
20080,30.25,-5.125,-69.1875,
20100,15.4375,-15.625,-71.5,
20120,1.125,-26.5,-72.25,
20140,-8.875,-36.3125,-66.6875,
20160,-7.375,-45.8125,-59.125,
20180,-8.6875,-53.125,-51.5625,
20200,-14.5,-60.4375,-43.875,
20220,-18.75,-64.25,-35.5625,
20240,-18.875,-68.6875,-23.25,
20260,-16.0625,-71.25,-9.4375,
20280,-11.125,-70.25,2.6875,
20300,-8.1875,-65.375,15.8125,
20320,-15.4375,-61.0625,29.3125,
20340,-21.5,-58,39.3125,
20360,-13.6875,-56,48.375,
20380,-5.5625,-50.1875,57.5,
20400,-8.4375,-44.125,65.9375,
20420,-16.875,-35.1875,71.6875,
20440,-17.625,-25.875,75.9375,
20460,-9.875,-16,81.8125,
20480,6,-3.625,88.3125,
20500,21.5625,8.5,91.25,
20520,20.1875,21.875,89.9375,
20540,16.75,41.3125,81.875,
20560,34.1875,54.3125,66.9375,
20580,60,57.875,56.4375,
20600,60.5625,57.6875,43.0625,
20620,30.9375,58.4375,25.1875,
20640,-3.125,58.25,5.1875,
20660,-15.625,55.875,-12.25,
20680,6.3125,54.25,-27.375,
20700,34.9375,58.625,-35.9375,
20720,46.9375,60.25,-42.8125,
20740,40.4375,60.25,-49.875,
20760,34.75,62.875,-55.25,
20780,44.375,58.6875,-57.0625,
20800,41.0625,44.5625,-56.5,
20820,27.625,30.9375,-62.1875,
20840,21.1875,22.75,-67.125,
20860,11.4375,12.5625,-65.125,
20880,-3.5625,-5.3125,-61.75,
20900,-13.8125,-16.5625,-65.4375,
20920,-14.3125,-22.8125,-68.25,
20940,-14.6875,-32.625,-64.1875,
20960,-11.125,-42.6875,-58.125,
20980,-6.125,-48.1875,-55,
21000,-0.8125,-52.4375,-48.625,
21020,-0.3125,-56.25,-44.1875,
21040,-4.0625,-63.3125,-40.75,
21060,-3.4375,-68.3125,-34.9375,
21080,-0.9375,-70.0625,-28.375,
21100,3.8125,-69.625,-20.6875,
21120,6.0625,-70.8125,-11.875,
21140,4.6875,-69.6875,-3.9375,
21160,-1.0625,-63.4375,5,
21180,-5.9375,-58.125,16.9375,
21200,-7,-51.6875,28.375,
21220,-10.25,-46.9375,41.5,
21240,-14.125,-39.6875,51.25,
21260,-14.8125,-30.6875,59.4375,
21280,-15.3125,-19.8125,68.9375,
21300,-14.4375,-9.9375,78.125,
21320,-17.8125,2.4375,83.8125,
21340,-14.8125,14.75,91,
21360,-0.4375,23.75,97,
21380,10.5,34.125,98,
21400,4.5625,47.9375,90.125,
21420,1.125,60.625,79.4375,
21440,12.6875,72.4375,66.75,
21460,33.375,74.5625,50.4375,
21480,36.4375,76.5625,32.75,
21500,35.4375,75.875,15.875,
21520,32.1875,67.375,-0.125,
21540,32.3125,53.875,-16.5625,
21560,37.5625,48.625,-33.8125,
21580,36.25,49,-45.3125,
21600,38.8125,53.375,-54.5,
21620,46.375,47.125,-58.75,
21640,53.5,36.5,-61.1875,
21660,52.8125,26.375,-68.9375,
21680,48.875,19.0625,-74.6875,
21700,37.8125,1.3125,-74.5625,
21720,20.75,-15.0625,-75.375,
21740,8,-26.6875,-76.625,
21760,3.375,-38,-73.8125,
21780,3.1875,-51.8125,-66.375,
21800,-4.1875,-62.3125,-60.9375,
21820,-11.1875,-67.6875,-56.875,
21840,-16.375,-70.4375,-50.125,
21860,-12.625,-72.5,-41.125,
21880,-3.375,-73,-31.625,
21900,3.75,-72.8125,-19.6875,
21920,4.625,-71.875,-8.3125,
21940,1.3125,-69.125,3.625,
21960,-6.4375,-66.375,17.875,
21980,-14.0625,-61.8125,31.75,
22000,-20.1875,-57.4375,47.3125,
22020,-32.875,-50.5,60,
22040,-37.375,-41.375,69.4375,
22060,-40.125,-28.125,78.4375,
22080,-26.9375,-17.8125,85.5625,
22100,-13.375,-8.0625,89.9375,
22120,-3.625,6.6875,93.375,
22140,1.25,25.5625,92.625,
22160,5.25,40.9375,89,
22180,10.875,46.8125,82.375,
22200,16.9375,51.8125,74.1875,
22220,23.9375,57.0625,62.6875,
22240,21.6875,67.875,45.3125,
22260,8.0625,63.5,26,
22280,-4.125,60.9375,12.25,
22300,9.9375,62.125,1.9375,
22320,36.875,64.5625,-8.1875,
22340,52.5625,69.375,-24.1875,
22360,59.9375,76,-42,
22380,77,77.125,-47.25,
22400,95.625,66.125,-49.375,
22420,74.625,51.375,-58.0625,
22440,49.3125,43.3125,-68.5625,
22460,54.5625,34.8125,-71.25,
22480,61.1875,18.9375,-69.5,
22500,42.9375,-3.5625,-69.6875,
22520,10.375,-17.8125,-70.4375,
22540,-9.6875,-28.1875,-71.5,
22560,-16.75,-38.625,-65.875,
22580,-15.75,-49.5,-57,
22600,-14.75,-55.5,-50.3125,
22620,-16.375,-59.625,-44.8125,
22640,-18.3125,-62.625,-37.875,
22660,-17,-67.75,-29.4375,
22680,-13.6875,-70.875,-23.625,
22700,-8.4375,-73.75,-16.5,
22710,-9.5625,-75.5,-6.125,
22730,-17.6875,-74.6875,2.25,
22750,-23.125,-71.1875,10.25,
22770,-20.375,-68.625,20.6875,
22790,-19.0625,-64.0625,30.5625,
22810,-23.0625,-59.375,39.75,
22830,-23.375,-51.4375,46.8125,
22850,-22.4375,-41,53.125,
22870,-22.625,-32.625,60.0625,
22890,-18.0625,-27.6875,65.625,
22910,-18.125,-16.75,67.8125,
22930,-22.8125,-2.4375,71.6875,
22950,-18.5,5.75,76.5,
22970,-10.4375,14.375,76.0625,
22990,-8.8125,24.75,71.4375,
23010,-5.25,42.5625,67,
23030,1.3125,55.8125,57.8125,
23050,9.6875,62.1875,48.5,
23070,18.5625,69.625,38.25,
23090,35.125,79.5,31.8125,
23110,63.0625,88.1875,25,
23130,75.375,86.25,14.9375,
23150,64.9375,80.625,0.4375,
23170,45.125,79.875,-17.0625,
23190,38.8125,77,-31.875,
23210,49.6875,65.25,-38.9375,
23230,41.8125,50.0625,-41.5625,
23250,25.125,45.8125,-51.0625,
23270,28.4375,43.4375,-63,
23290,35.625,37.6875,-66.0625,
23310,45.8125,21.125,-65.5,
23330,42.5,6.4375,-67.4375,
23350,33.1875,0.1875,-72.9375,
23370,18.5,-8.25,-74.125,
23390,6.3125,-24.0625,-68.75,
23410,0,-37.75,-65.8125,
23430,-9.25,-50.8125,-69.75,
23450,-17.125,-58.3125,-68.5625,
23470,-16.75,-65.6875,-60.6875,
23490,-11.25,-71.875,-49.25,
23510,-6.0625,-76.5,-36.9375,
23530,-11.375,-75.5,-25.6875,
23550,-17.25,-72.9375,-12.1875,
23570,-19.4375,-71.375,1.875,
23590,-16.5,-65.8125,13.75,
23610,-16.9375,-63.8125,27.125,
23630,-18.25,-64.1875,39,
23650,-21.125,-61.125,47.8125,
23670,-24.25,-54.6875,54,
23690,-26.625,-50.1875,60.6875,
23710,-26.8125,-47.25,67.875,
23730,-27.3125,-40.0625,73.3125,
23750,-25.6875,-28,75.125,
23770,-26.4375,-17.5,79.75,
23790,-32.5625,-8.625,80.0625,
23810,-32.4375,-0.3125,77.375,
23830,-14.875,13.5,77.25,
23850,11,31.25,74.75,
23870,28.625,44.6875,72.0625,
23890,29.1875,53.6875,65.5,
23910,28.75,59.0625,55.8125,
23930,26.9375,64.5,43.5625,
23950,28.3125,68.4375,31.5,
23970,36.9375,71.75,19.5,
23990,57.375,76.1875,7.875,
24010,73.6875,78.5625,-6,
24030,68.25,80.875,-27.125,
24050,54.6875,82.4375,-48.5625,
24070,57.6875,73.9375,-62.5625,
24090,69.5,53.8125,-66.5,
24110,73.9375,33.375,-71.375,
24130,56.0625,24.8125,-79.8125,
24150,28,16.6875,-83.5625,
24170,16.3125,4.4375,-79.0625,
24190,14.9375,-7.3125,-75.625,
24210,10.5,-20.125,-73.6875,
24230,-0.4375,-27.375,-69.875,
24250,-11,-33.4375,-63.75,
24270,-11,-41.625,-56.3125,
24290,-3.375,-50.8125,-49.0625,
24310,-3.9375,-52.125,-43,
24330,-8,-56.5625,-38.6875,
24350,-7.25,-60.5,-31.5625,
24370,-6.125,-63.9375,-23.9375,
24390,-6.375,-67.4375,-16.25,
24410,-8.625,-71.5,-7.4375,
24430,-14,-72.8125,1.625,
24450,-17.8125,-73.4375,10.5,
24470,-19.75,-71.8125,21.6875,
24490,-21.0625,-70.4375,33.5625,
24510,-26.6875,-65.6875,41.75,
24530,-31.375,-60.625,50.25,
24550,-34.125,-56.9375,59,
24570,-32.25,-49.5625,67.5,
24590,-27,-40.5,78.75,
24600,-17.875,-29.3125,87.3125,
24620,-13.5,-17.5,95.0625,
24640,-16.625,-6.6875,96.3125,
24660,-20.5,2.4375,93.75,
24680,-11.875,14.5625,83.75,
24700,-3.3125,34.1875,71.625,
24720,1.875,45.25,64.25,
24740,11.4375,51.3125,60,
24760,28.25,57.0625,51.6875,
24780,29.875,60.9375,39.3125,
24800,27.5,61.5,25.875,
24820,28.0625,60.4375,14.625,
24840,29.5,58.3125,3.4375,
24860,31.125,57.4375,-10.625,
24880,22.5625,55.4375,-23.25,
24900,15,51.375,-35.0625,
24920,22,50.8125,-42.4375,
24940,39,53.125,-47.4375,
24960,53.5,55.0625,-51.3125,
24980,66.0625,51.1875,-53.875,
25000,68.625,46.5625,-58.125,
25020,60.9375,40.4375,-60.6875,
25040,60.3125,32.6875,-62.5625,
25060,62.4375,19.3125,-57.875,
25080,45.5,2,-51.375,
25100,13.4375,-12,-53.1875,
25120,-13,-19,-56.0625,
25140,-22.5625,-29.875,-54.875,
25160,-26.875,-41.75,-53.0625,
25180,-33.875,-55.8125,-51,
25200,-32.8125,-64.3125,-53.6875,
25220,-28.5,-72.125,-53.1875,
25240,-20.5625,-76.875,-49.4375,
25260,-15.75,-81.125,-42.8125,
25280,-14.125,-81.1875,-34.875,
25300,-12,-78,-25.6875,
25320,-11.1875,-75.9375,-14,
25340,-9.3125,-70,-0.3125,
25360,-11.5,-67.0625,16.125,
25380,-15.75,-62,30.8125,
25400,-19.8125,-54.5625,44.375,
25420,-15.5625,-47.1875,59.8125,
25440,-13.6875,-40,70.6875,
25460,-13.9375,-29.9375,76.8125,
25480,-10.9375,-18.0625,84.1875,
25500,-3.5625,-6.5,94.6875,
25520,3.25,5.25,102.875,
25540,5.5625,21.3125,108.625,
25560,9.1875,33.375,107.5,
25580,21.375,40,97.9375,
25600,34.5,48.5,81.75,
25620,39.5,52.875,70.6875,
25640,37.6875,54.8125,59.5,
25660,31.75,57.4375,46.3125,
25680,24.3125,58.0625,32.375,
25700,38.3125,57.0625,17,
25720,50.75,55.75,0.5625,
25740,36.6875,51.125,-13.1875,
25760,24.5,52.1875,-26.125,
25780,31.5,50.0625,-36.5,
25800,40.4375,44,-44,
25820,32.5625,37.4375,-51.75,
25840,25.5,34.625,-58.375,
25860,33.0625,32.9375,-65.9375,
25880,43.8125,25.9375,-69.375,
25900,48.75,17.9375,-70.5,
25920,50.875,9.6875,-71.6875,
25940,40.6875,0.9375,-71.4375,
25960,20.4375,-11.6875,-69.5625,
25980,-0.125,-26.8125,-66.6875,
26000,-15.0625,-39.375,-63.75,
26020,-21.875,-49.375,-55.5625,
26040,-23.5,-55.625,-45.3125,
26060,-26.5,-60,-34.375,
26080,-32.0625,-65.4375,-26.25,
26100,-36.1875,-67.3125,-17.75,
26120,-31.9375,-69,-7.25,
26140,-27.1875,-69.1875,3.625,
26160,-27.625,-64.875,15.875,
26180,-28.5,-61.8125,27.375,
26200,-30.5625,-60.25,37,
26220,-29.9375,-57.0625,43.9375,
26240,-28.875,-51.3125,50.9375,
26260,-27.9375,-45.125,60,
26280,-26.75,-38.1875,67.125,
26300,-30.0625,-28.8125,72.625,
26320,-37.5,-14.5,77.5625,
26340,-33.5,2.8125,80.8125,
26360,-19.4375,22.125,84.375,
26380,-4.25,36.125,87.4375,
26400,11.1875,42.875,83.1875,
26420,20.8125,52,73.1875,
26440,30.1875,56.125,59.9375,
26460,35.8125,55.75,48.375,
26480,33.9375,51.875,36.125,
26500,23.875,49.375,22.3125,
26520,20.8125,49.625,7.875,
26540,24.9375,57,-10.1875,
26560,35.1875,62.0625,-30.1875,
26580,46.8125,65.375,-43.3125,
26600,57.5,54.5,-54.25,
26620,54.8125,41.9375,-62.625,
26640,61.6875,33.5,-71.0625,
26660,64,26.25,-73.0625,
26680,56.3125,10.9375,-68.625,
26700,38.625,-1.8125,-63.8125,
26720,25.0625,-9.6875,-63.3125,
26740,12.5,-20.3125,-62,
26760,-1.4375,-30.6875,-57.375,
26780,-8.5,-39.3125,-51.875,
26800,-11.0625,-51.625,-46.0625,
26820,-17,-59.5,-42.375,
26840,-24.25,-64.375,-38.4375,
26860,-25.3125,-65.1875,-33.25,
26880,-17.125,-65.6875,-23.375,
26900,-10,-66.25,-10.625,
26920,-13,-64,0.1875,
26940,-20.375,-62.4375,10.25,
26960,-25.25,-59.3125,19.75,
26980,-28,-58.75,29.75,
27000,-30.0625,-55.125,39.25,
27020,-27.8125,-51.375,46.875,
27040,-30.3125,-47.625,52.875,
27060,-30.25,-43.5,59.3125,
27080,-23.625,-36.8125,65.4375,
27100,-15.5,-33.4375,74.25,
27120,-16.1875,-24.4375,78.75,
27140,-26.5,-11.5625,83.0625,
27160,-32.375,-0.1875,82.8125,
27180,-29.0625,13.3125,78,
27200,-10.4375,26.3125,76.5625,
27220,13.6875,35.9375,80.8125,
27240,27.5,52.3125,79,
27260,17.75,59.875,63.375,
27280,-11.5,57.3125,56.875,
27300,-6.3125,55.0625,48.125,
27320,15.75,60.3125,35.25,
27340,23,62,16,
27360,10.375,56.5,-3,
27380,11.25,51.1875,-22,
27400,16.0625,48.3125,-32.5625,
27420,22.625,50,-38.5625,
27440,40.4375,54.0625,-45.75,
27460,54.4375,53.6875,-52.125,
27480,52.8125,39.4375,-60.3125,
27500,39.3125,32.625,-72.6875,
27520,31.375,26.375,-80.125,
27540,34.5625,20.375,-80.3125,
27560,42.375,12.75,-78.4375,
27580,40.125,-4.875,-73.625,
27600,29.3125,-15.8125,-72.375,
27620,10.375,-21.375,-78.625,
27640,0.9375,-31.4375,-79.6875,
27660,8.4375,-47.0625,-78.5,
27680,12.9375,-58.8125,-71.1875,
27700,11.125,-65.5,-62.875,
27720,8.5625,-67.6875,-54.9375,
27740,5.4375,-67.8125,-47.4375,
27760,6.25,-69.3125,-35.3125,
27780,7,-71.25,-20.5,
27800,6,-70.125,-7.5,
27820,5.6875,-67.8125,3.6875,
27840,6.75,-64.8125,16.375,
27850,1.0625,-61,30,
27870,-10.75,-58.5,43,
27890,-19.625,-55.5,53.25,
27910,-20.4375,-48.0625,62.375,
27930,-17.25,-41.375,72.75,
27950,-17.6875,-34.375,81.25,
27970,-16.5,-24.9375,89.5,
27990,-10.875,-13.75,92.5625,
28010,-8.5,0.5,91.3125,
28030,-14.4375,15.0625,89.875,
28050,-15.4375,26.375,92,
28070,6.375,38.3125,91.9375,
28090,34.5625,45.875,87.25,
28110,27.625,50.625,81.1875,
28130,-3.6875,51.375,74.5625,
28150,-14.25,47.1875,64.5,
28170,-2.75,55.8125,48.625,
28190,2.25,64.125,28.375,
28210,5,60,7.8125,
28230,16.75,60.6875,-7.5625,
28250,23.3125,62.8125,-22.3125,
28270,29.375,64.0625,-37.1875,
28290,39.625,63.875,-48.1875,
28310,49.6875,58.6875,-56.0625,
28330,46.5,53.25,-62.75,
28350,45.25,46.0625,-65,
28370,44.25,36.8125,-68.875,
28390,30.375,21.3125,-71.5625,
28410,15.5,5.8125,-71.6875,
28430,12.5625,-7.6875,-73.25,
28450,10.375,-21.5,-70.3125,
28470,1.0625,-30.25,-68.9375,
28490,-3.1875,-40.5,-66.75,
28510,1.375,-50.9375,-63.0625,
28530,4.625,-57.4375,-60,
28550,5.875,-59.375,-57.5625,
28570,9.8125,-62.375,-49.1875,
28590,12.1875,-67.3125,-41.5,
28610,12.75,-67.0625,-35.1875,
28630,14.6875,-69.1875,-26,
28650,10.875,-70.625,-16,
28670,2.9375,-70.6875,-7.75,
28690,-6.8125,-71,-0.25,
28710,-10.8125,-69.0625,7.9375,
28730,-8.4375,-67.625,17.4375,
28750,-6.6875,-64.875,27,
28770,-10.75,-58.875,37.6875,
28790,-15.5625,-52.0625,48.3125,
28810,-20.125,-43.1875,57.5,
28830,-20.125,-33,66.9375,
28850,-18.3125,-24.4375,77.5625,
28870,-19.0625,-14.3125,84.6875,
28890,-19.375,-0.6875,88.375,
28910,-17.25,16.125,91.25,
28930,-14.4375,33,91.125,
28950,-4.125,44.8125,90.5625,
28970,13.5625,55.9375,88,
28990,25.375,70.8125,81.9375,
29010,16.3125,72.3125,74.5625,
29030,-0.9375,66,64.1875,
29050,-7.875,58.0625,46.625,
29070,-14,50.3125,28.125,
29090,-25.625,42.6875,11.6875,
29110,-31.875,39.6875,-7.875,
29130,-29.5,43.1875,-21.625,
29150,-16.125,43.5,-27.4375,
29170,4.375,45.5625,-33.9375,
29190,23.25,48.4375,-40,
29210,39.4375,53.8125,-48.3125,
29230,43.1875,56.9375,-57.9375,
29250,38.625,52.3125,-59.375,
29270,28.1875,37,-60.5625,
29290,17.75,26.6875,-65.6875,
29310,11.8125,13.6875,-69.5625,
29330,10.125,-4.125,-67.8125,
29350,11,-21.5625,-67,
29370,8.375,-34.5625,-67.5,
29390,5.3125,-44.5,-68.875,
29410,6.8125,-52.4375,-66.1875,
29430,12.1875,-60.9375,-60.5625,
29450,19,-65.5625,-53.3125,
29470,22.5,-69.875,-45.5,
29490,23.5625,-69.875,-38.625,
29510,24.5625,-71.375,-30.375,
29530,28.3125,-68.0625,-22.25,
29540,29,-66.9375,-10.8125,
29570,28.4375,-65.0625,-0.0625,
29590,28.625,-61,12.125,
29610,20.0625,-58.375,26.1875,
29630,8.4375,-56.75,37.0625,
29650,-2.75,-50.625,44.8125,
29670,-8.625,-44.5625,49.25,
29690,-12.4375,-38.1875,57.0625,
29710,-11.3125,-33.0625,64.375,
29730,-8.75,-24.125,64.75,
29740,-8.5625,-16.3125,66.5,
29760,-8.4375,-7.875,69.6875,
29780,-8.375,2.625,72.6875,
29800,-11.0625,12.4375,73.875,
29820,-12.75,18.5625,73.875,
29840,-13.8125,26.0625,70.1875,
29860,-17.75,35.0625,69.5,
29880,-14.4375,42.1875,70.3125,
29900,-4.5625,49.8125,65,
29920,-5.75,57.1875,56.5625,
29940,-16.75,60.0625,46.375,
29960,-18,62.9375,34.375,
29980,0.5,70.3125,22.1875,
30000,18.3125,76.75,12.6875,
30020,22.875,75.5,9.0625,
30040,15.5,68.75,4.1875,
30060,16.125,69.75,-6.625,
30080,20.3125,69.125,-20.375,
30100,8.5,59.8125,-28.9375,
30120,3.0625,53.875,-36.4375,
30140,8.5,46.125,-39.5,
30160,-1.6875,29.5,-44.125,
30180,-26.5625,24.6875,-59.125,
30200,-34.6875,21.6875,-70.9375,
30220,-11.125,16.1875,-71.6875,
30240,18.6875,5.125,-68.875,
30260,31.5,-5,-68.8125,
30280,22.3125,-9.25,-71.3125,
30300,8.75,-15.3125,-73.0625,
30320,4.4375,-23.6875,-70.5,
30340,11.625,-35.6875,-67.25,
30360,18.75,-42.625,-64.9375,
30380,18.625,-50.375,-61.0625,
30400,13.5625,-57.75,-57.875,
30420,6.5625,-62.25,-51.0625,
30440,8.0625,-66.3125,-44.375,
30460,15.0625,-67.4375,-38.75,
30480,22,-67.5625,-30.375,
30500,26.625,-68.4375,-19.875,
30520,22.0625,-67.25,-8.625,
30540,16.5625,-65.5,5.125,
30560,7.4375,-65.1875,18.125,
30580,-2.1875,-60.5625,31.375,
30600,-6,-56.25,41.75,
30620,-4.5625,-48.6875,51.625,
30640,-1.625,-39.875,61.9375,
30660,-2.9375,-31.625,70.3125,
30680,-8.25,-24.25,74.75,
30700,-12.375,-12.8125,75.6875,
30720,-12.1875,-1.0625,78.0625,
30740,-4.75,6.625,81.625,
30760,6.6875,17.5625,82.5,
30780,14.375,31.9375,80.375,
30800,17.4375,44.4375,78.1875,
30820,19,50.875,73.875,
30840,19.75,56.5,66,
30860,14.6875,61.5,54.5625,
30880,9,65.6875,44.8125,
30900,9.875,67.6875,35.125,
30920,17.375,67.625,19.8125,
30940,25.25,66.0625,3.375,
30960,27.875,63.5625,-10.625,
30980,24.5,61.4375,-21.0625,
31000,17.1875,53.0625,-28.875,
31020,4.8125,42.9375,-35.875,
31040,4,41.75,-44.8125,
31060,12.625,38.9375,-52.9375,
31080,17.375,29.25,-56.0625,
31100,12.3125,18.125,-55.8125,
31120,5.625,14.375,-60,
31140,-1.0625,6.0625,-60.125,
31160,-0.5625,-6.4375,-59.875,
31180,0.25,-16.125,-59.6875,
31200,0.625,-25.9375,-58.4375,
31220,-3.125,-34.875,-55.5,
31240,-9.6875,-43.4375,-53.6875,
31260,-5.0625,-51.5,-52.625,
31280,-1.25,-56.875,-50.625,
31300,2.25,-58.9375,-45.1875,
31320,7.4375,-61.125,-38.1875,
31340,12.5,-63.3125,-31.375,
31360,11.8125,-66.1875,-26.5,
31380,12.0625,-65.0625,-20.625,
31400,14.8125,-66.3125,-10.4375,
31420,17,-68.125,0.125,
31440,14.0625,-67.5625,8.1875,
31460,6.0625,-67.75,15.9375,
31480,-5.125,-64.8125,24.8125,
31500,-6.1875,-60.9375,32.0625,
31520,-3.0625,-55.1875,40.8125,
31540,0.4375,-49.375,48.25,
31560,-7.625,-34.625,54.3125,
31580,-13.1875,-26,62.4375,
31600,-11,-20.625,69.75,
31620,-9.4375,-9.375,72.625,
31640,-8.8125,4.25,76.4375,
31660,-4,16.6875,80.375,
31680,9.25,26.6875,83.5625,
31700,16.5,36.625,79.25,
31720,12.4375,47.0625,69.75,
31740,5.625,54.125,62.9375,
31760,4.625,56.0625,59.1875,
31780,12.6875,57.3125,50.25,
31800,19.375,64.125,38.25,
31820,20.6875,72.25,26.75,
31840,27.375,73.9375,11.625,
31860,33.6875,72.8125,-0.0625,
31880,38.25,68.6875,-11.3125,
31900,37.125,67.3125,-24.6875,
31920,37.8125,67.5625,-40.625,
31940,38.5625,59.8125,-46.875,
31960,37.25,44.375,-48.5,
31980,42.8125,44.25,-55.125,
32000,48.8125,45.125,-61.5,
32020,46.25,32.5,-64.25,
32040,38.25,16.875,-67.5,
32060,30.375,11,-73.3125,
32080,32.75,4.6875,-73.5625,
32100,29.75,-6.75,-73.375,
32120,17.5625,-21.1875,-69.3125,
32140,8.8125,-32.375,-69.875,
32160,1.8125,-39.3125,-66.25,
32180,-3.625,-49.4375,-59.8125,
32200,-8.1875,-55.4375,-55.25,
32220,-9.5625,-61.375,-45.5625,
32240,-7.4375,-64.8125,-36.6875,
32260,-5.4375,-66.625,-28.125,
32280,-7.6875,-66.6875,-20.75,
32300,-8.6875,-66.625,-8.375,
32320,-8.5625,-68.125,3.1875,
32340,-11.8125,-65.375,15,
32360,-14.625,-62.9375,27.625,
32380,-18.0625,-56.875,36.875,
32400,-21.3125,-50.8125,47.3125,
32420,-22.875,-46.4375,55.75,
32440,-21.8125,-41.9375,63,
32460,-22.6875,-36.875,69.875,
32480,-23.875,-28.75,73.5625,
32500,-18,-18.4375,74.5625,
32520,-3.6875,-5.4375,77.75,
32540,8.5,6.375,81.9375,
32560,7.75,30.5625,81.625,
32580,-3.25,44.375,73.5,
32600,-3.875,48.875,69.75,
32620,24.875,48.3125,70.5,
32640,52.625,47.0625,69.5,
32660,44.9375,54.875,57.625,
32680,21.625,62.75,39.125,
32700,17.4375,65.4375,24.8125,
32720,35.625,60.9375,15.375,
32740,46.0625,56.4375,3,
32760,33.25,55.25,-16.1875,
32780,12.5,56.6875,-30.375,
32800,21,56.5625,-39.8125,
32820,38.75,55.125,-45.25,
32840,43.4375,53.4375,-51.6875,
32860,46.0625,52.875,-60.5,
32880,56.9375,55.8125,-69.4375,
32900,79.375,53,-73.875,
32920,86.6875,45.8125,-77.125,
32940,80.1875,37.6875,-78.75,
32960,67.8125,17.375,-77.1875,
32980,33.3125,-3.8125,-73.25,
32990,0.4375,-23.125,-66.375,
33010,-19.3125,-37.3125,-60.25,
33030,-30.875,-48.625,-55.6875,
33050,-37.75,-58.625,-57.1875,
33070,-37.1875,-67.4375,-58.5625,
33090,-30.4375,-74.3125,-57.5,
33110,-22.1875,-78.75,-53.375,
33130,-17,-80.75,-46.25,
33150,-16.3125,-82.25,-36.5625,
33170,-15.6875,-82,-26.1875,
33190,-15.75,-80.9375,-14.5625,
33210,-15.1875,-79,-2,
33230,-14.875,-75.625,10.625,
33250,-16.4375,-72.625,24.8125,
33270,-19.0625,-67.9375,36.5625,
33290,-20.5,-62.0625,46,
33310,-21.3125,-54.375,52.5,
33330,-18.625,-47.9375,60.375,
33350,-13.8125,-43.8125,67.125,
33370,-9.25,-36.9375,73.625,
33390,-4.5625,-29.6875,79.75,
33410,-10.875,-21.625,84.6875,
33430,-19.375,-12.375,86.4375,
33450,-17.125,-3.5625,85.5625,
33470,-8.125,4.625,86.9375,
33490,1.625,12.875,85.375,
33510,8.9375,23.875,83.3125,
33530,8.9375,36.125,77.9375,
33550,6.4375,45.5,69.375,
33570,7.875,52.25,62.6875,
33590,20.5,57.5,56.625,
33610,26.5625,59.4375,46.5625,
33630,16.25,61.25,31.5,
33650,-7.125,62.5,15.125,
33670,-8.5625,62,-0.5,
33690,26.1875,60.5,-10.375,
33710,62.5,61.3125,-15.9375,
33730,62.375,62.8125,-24.3125,
33750,43.8125,67.1875,-35.0625,
33770,34.125,62.0625,-44.9375,
33790,32.4375,49.4375,-50.9375,
33810,34.0625,37.5,-56.875,
33830,34.25,29.25,-61.5,
33850,24.9375,16,-64.6875,
33870,15.8125,5.1875,-69.8125,
33890,17.25,-1.1875,-73.4375,
33910,16,-10.75,-71.875,
33930,6.3125,-20.375,-70.25,
33950,3.1875,-30.125,-69.4375,
33970,1.5625,-37.9375,-66.1875,
33990,0.75,-43.5,-61.25,
34010,-1.875,-49.625,-55,
34030,-6.5,-55,-49.125,
34050,-7.3125,-59.5,-42.625,
34070,-5.75,-62.6875,-34.8125,
34090,-5.75,-65.375,-23.5625,
34110,-5.625,-66.4375,-12.5625,
34130,-5.375,-63.9375,-2.125,
34150,-0.625,-63.9375,10.75,
34170,0.125,-60.375,20.5,
34190,-1.125,-54.3125,29.25,
34210,-6.75,-49.4375,40,
34230,-11.875,-43.4375,49.125,
34250,-12.25,-39.25,59.1875,
34270,-9.25,-31.875,67.5625,
34290,-7.9375,-23.5625,73.75,
34310,-9,-16.5625,78.6875,
34330,-16.3125,-6.75,79.875,
34350,-13.1875,0.4375,80.1875,
34370,0.0625,8.75,79.1875,
34390,11.75,21.4375,77.1875,
34410,11.9375,32.5,74.9375,
34430,9.125,42.0625,68.1875,
34450,12.8125,49.625,58.5,
34470,18.8125,55.8125,49.75,
34490,15.1875,56.8125,41.8125,
34510,9.375,55.3125,30.625,
34530,5.1875,54.0625,17.6875,
34550,0.1875,53.8125,7.875,
34570,-1.375,52.4375,-4.125,
34590,2.1875,50.75,-13.375,
34610,9.3125,50.8125,-21.875,
34630,14.9375,50.125,-26,
34650,10.8125,47.625,-31.625,
34670,9.625,46.875,-38.4375,
34690,19.8125,45.375,-43.1875,
34710,21.125,38.9375,-44.875,
34730,16.4375,30.8125,-48.875,
34750,15.4375,26.375,-55.6875,
34770,18.75,18.3125,-59.25,
34790,14.875,8.625,-59.875,
34810,15.25,-0.4375,-60.125,
34830,9.625,-8.75,-61.0625,
34850,2.5,-18.375,-64.0625,
34870,-2.625,-28.3125,-63.875,
34890,1.9375,-37.125,-59.75,
34900,4.9375,-45.4375,-54.6875,
34920,4.875,-52,-48.75,
34940,2.0625,-57,-42.1875,
34960,-1.75,-59.75,-34,
34980,-0.75,-61.0625,-23.875,
35000,2.75,-61.375,-13.375,
35020,0.375,-60.25,-1.3125,
35040,-3.4375,-59.8125,5,
35060,-3.75,-60.375,11.4375,
35080,-1.625,-61,19.3125,
35100,-6,-60.25,29.625,
35120,-11.25,-57.3125,37.375,
35140,-8.9375,-50.75,43.3125,
35160,-7.4375,-42.875,49.6875,
35180,-7.0625,-31.3125,54.5625,
35200,-3.5,-17.8125,59.5,
35220,5.4375,-4.875,68.6875,
35240,16.5625,8.5625,78.625,
35260,24.875,22.75,84.9375,
35280,15.5,40.125,82.5625,
35300,3.5625,52.125,77.5,
35320,7.875,56.75,74.75,
35340,16.875,55.625,71.375,
35360,19.875,55.9375,63.6875,
35380,8.9375,61.75,52.125,
35400,2.8125,65.875,38.75,
35420,9.5,63.5625,24,
35440,12.9375,59.125,7.5,
35460,9.625,55.375,-9.5,
35480,12.625,51.125,-21.0625,
35500,16.0625,47.625,-33.75,
35520,21.75,43.875,-44.5,
35540,25.5,41,-53.1875,
35560,27.4375,33.0625,-58.0625,
35580,19.5,26.5625,-65.5,
35600,9.9375,20.875,-70.9375,
35620,12.0625,13.9375,-70.3125,
35640,21.25,6.25,-69.0625,
35660,19,-1.5625,-69.3125,
35680,13.3125,-7.875,-69.1875,
35700,7.875,-17.25,-66.3125,
35720,0.8125,-27.1875,-63.375,
35740,-6.25,-34.25,-59.4375,
35760,-9.0625,-44.5625,-54.25,
35780,-14.4375,-53.8125,-50.9375,
35800,-13.8125,-61.0625,-47.625,
35820,-12.5,-66.4375,-38.3125,
35840,-9.1875,-69.75,-29.4375,
35860,-10.3125,-69,-22,
35880,-10.25,-69.75,-10.125,
35900,-12.0625,-69.8125,-0.0625,
35920,-10.75,-69.75,9.125,
35940,-7.625,-68.875,19.8125,
35960,-6.6875,-64.6875,31.8125,
35980,-14.125,-59.5,44.5,
36000,-19,-53.125,52.25,
36020,-9.0625,-47.4375,58.0625,
36040,2.0625,-41.4375,65.8125,
36060,1.1875,-34.625,71.4375,
36080,-2.875,-24.625,75.0625,
36100,2.9375,-14.75,79.0625,
36120,8.625,-4.1875,82.375,
36140,8.4375,8.8125,82.4375,
36160,6.4375,21.5,80.375,
36180,14.5,29.25,75.6875,
36200,21.75,34.875,73.3125,
36220,19.5625,40.1875,68.8125,
36240,7.5,47.875,59.9375,
36260,3.75,50.9375,47.625,
36280,7.8125,49.875,37.3125,
36300,13.375,48.6875,26.875,
36320,12.0625,51.25,17.25,
36340,6.25,53.125,9.125,
36360,4.9375,52.25,4.125,
36380,9.4375,48.375,-0.9375,
36400,10.1875,47.1875,-10.4375,
36420,2.125,47.5,-20.6875,
36440,5,46.1875,-26.5625,
36460,15.3125,46,-31.0625,
36480,20.9375,46.25,-38.25,
36500,17.25,41.4375,-42.875,
36520,6.625,36.8125,-47.125,
36540,-2.9375,30.75,-49.75,
36560,-7.1875,22.8125,-48.125,
36580,-7.125,20.1875,-47.8125,
36600,-7.125,12.25,-51.75,
36620,-8.6875,4.5625,-51.75,
36640,-8.375,-3.6875,-51.5625,
36660,-13,-7.4375,-56.4375,
36680,-8.5,-12.0625,-56.8125,
36700,0.5625,-17.4375,-54.5625,
36720,7.5625,-20.9375,-53.1875,
36740,11.5625,-23.1875,-54.375,
36760,13.0625,-24.375,-51.3125,
36780,17,-24.3125,-47.875,
36800,23.3125,-26.0625,-43.8125,
36820,25.0625,-24.4375,-40.0625,
36840,21.875,-22.5625,-32.0625,
36860,20.5,-22.6875,-26.6875,
36880,19.125,-22.375,-23.125,
36900,16.0625,-19.3125,-18.8125,
36920,14.1875,-16.375,-11.125,
36940,15.625,-16.25,-6.4375,
36960,11.6875,-11.625,-3.6875,
36980,8.3125,-6.75,-3.9375,
37000,10.875,-3.125,-0.625,
37020,20.5,-1.625,3.5,
37040,20.125,-0.375,4.3125,
37060,9.25,4.0625,4.375,
37080,3.1875,5.9375,5.5625,
37100,3.75,7.125,6.1875,
37120,6,8.875,6.125,
37140,7.9375,10.0625,4.5625,
37160,10.0625,10.5,2.5625,
37180,8.5625,9.25,1.25,
37200,4.3125,8.125,0.25,
37220,1.6875,7.1875,0.0625,
37240,2.8125,7.1875,-0.5625,
37260,3.375,8.125,0.75,
37280,4.1875,8.4375,1.625,
37300,4.625,7.3125,-0.0625,
37320,1.375,8.625,-2,
37340,1.1875,9.5625,-1.9375,
37360,4.9375,6.75,-1.625,
37380,2.9375,6.125,-2.8125,
37400,1.1875,5.4375,-2.5,
37420,-0.8125,3.3125,-1.8125,
37440,-2.1875,0.9375,-1.875,
37460,-4.5,1.625,-2.6875,
37480,-4.0625,1.1875,-2,
37500,-4.25,0.5625,-0.375,
37520,-4.875,1.375,0.3125,
37540,-4.375,1.9375,0.5,
37560,-1.1875,2.125,0.875,
37580,0.875,2.8125,0.5625,
37600,-0.0625,2.125,2,
