Timestamp, Angle x, Angle y, Angle z
20,-0.782366,0.292578,0.292706,
50,-0.780069,0.283416,0.28739,
70,-0.765031,0.270669,0.284509,
90,-0.752032,0.252879,0.281647,
110,-0.752811,0.230785,0.276558,
120,-0.759299,0.205987,0.269493,
120,-0.761083,0.179971,0.260911,
160,-0.752608,0.15273,0.252937,
180,-0.74006,0.125113,0.24573,
200,-0.729556,0.0998845,0.239248,
220,-0.723745,0.0764587,0.231948,
240,-0.720058,0.0567028,0.224053,
260,-0.714323,0.0407427,0.217934,
280,-0.707035,0.0279819,0.213709,
300,-0.699428,0.0181852,0.210665,
320,-0.693664,0.0115328,0.208464,
340,-0.689645,0.00759359,0.205569,
360,-0.684771,0.00495197,0.203614,
380,-0.678715,0.0029217,0.202958,
400,-0.674374,0.00173611,0.202309,
420,-0.671631,0.00215268,0.202466,
440,-0.669098,0.00376777,0.202587,
460,-0.665702,0.00651945,0.202176,
480,-0.662662,0.00969571,0.201771,
500,-0.658822,0.0132354,0.20265,
520,-0.655736,0.0174695,0.204243,
540,-0.655193,0.0218525,0.205849,
560,-0.65369,0.0253957,0.207203,
580,-0.651829,0.0289657,0.208045,
600,-0.650643,0.0331147,0.20844,
620,-0.649412,0.0364843,0.209231,
640,-0.649269,0.0391545,0.209883,
660,-0.650163,0.0421189,0.209948,
680,-0.650013,0.0450159,0.210143,
700,-0.649421,0.0469368,0.210265,
720,-0.64892,0.0482029,0.210358,
740,-0.647748,0.0497122,0.21101,
760,-0.646599,0.0509129,0.211506,
780,-0.646324,0.0509642,0.21174,
800,-0.646449,0.0510969,0.212475,
820,-0.646437,0.0512943,0.213446,
840,-0.646667,0.0518637,0.214303,
860,-0.647399,0.0522574,0.214823,
880,-0.647387,0.0523725,0.214784,
900,-0.646095,0.0523514,0.215167,
920,-0.645014,0.051575,0.215545,
940,-0.645732,0.0508779,0.215912,
960,-0.645907,0.0505461,0.216029,
980,-0.645622,0.0507896,0.216461,
1000,-0.644715,0.0507703,0.216715,
1020,-0.6437,0.0506971,0.216863,
1040,-0.642554,0.0503049,0.21723,
1060,-0.641723,0.0495939,0.217714,
1080,-0.641762,0.049287,0.217947,
1100,-0.642408,0.0493583,0.21832,
1120,-0.643465,0.0492805,0.218879,
1140,-0.643615,0.0491051,0.219456,
1160,-0.643507,0.0490548,0.220123,
1180,-0.642985,0.049002,0.220904,
1200,-0.643425,0.048739,0.221521,
1220,-0.644447,0.0490472,0.222084,
1240,-0.645319,0.0495349,0.222843,
1260,-0.645692,0.0496585,0.223451,
1280,-0.645966,0.0495353,0.223754,
1300,-0.645854,0.0493302,0.223948,
1320,-0.64511,0.0490137,0.224043,
1340,-0.644919,0.0486018,0.224445,
1360,-0.644919,0.0486018,0.224445,
1380,-0.645552,0.0487521,0.224662,
1400,-0.645539,0.0488671,0.224623,
1420,-0.645539,0.0488671,0.224623,
1440,-0.645539,0.0488671,0.224623,
1460,-0.645155,0.0488626,0.224751,
1480,-0.645241,0.0492246,0.225017,
1500,-0.645575,0.049767,0.224972,
1520,-0.645961,0.0498492,0.225081,
1540,-0.646322,0.0502004,0.225231,
1560,-0.646778,0.0506822,0.225331,
1580,-0.647563,0.050693,0.225469,
1600,-0.647945,0.0506586,0.225223,
1620,-0.648354,0.050394,0.225054,
1640,-0.648542,0.0498701,0.224973,
1660,-0.647982,0.0489125,0.224634,
1680,-0.647843,0.0488985,0.224632,
1700,-0.647748,0.0487291,0.224565,
1720,-0.647811,0.0481152,0.22464,
1740,-0.647976,0.0478991,0.224719,
1760,-0.64733,0.0478297,0.225118,
1780,-0.647073,0.0478814,0.225745,
1800,-0.647196,0.0478598,0.226008,
1820,-0.647196,0.0478598,0.226008,
1840,-0.646502,0.0483665,0.226608,
1860,-0.645947,0.0488869,0.22721,
1880,-0.645638,0.0494368,0.227802,
1900,-0.645741,0.0498394,0.22858,
1920,-0.64569,0.0502652,0.229082,
1940,-0.646091,0.050311,0.229466,
1960,-0.646344,0.0505354,0.230048,
1980,-0.645688,0.0506567,0.230647,
2000,-0.645663,0.0508525,0.231225,
2020,-0.646161,0.0511073,0.231796,
2040,-0.647004,0.0517132,0.232122,
2060,-0.647027,0.0528454,0.232788,
2080,-0.647162,0.0541831,0.233259,
2100,-0.646524,0.0552801,0.234052,
2120,-0.645863,0.0567232,0.235124,
2140,-0.646466,0.0584692,0.235852,
2160,-0.647164,0.0603858,0.236647,
2180,-0.647268,0.0617643,0.237224,
2200,-0.647028,0.0628641,0.237509,
2220,-0.646537,0.063704,0.23787,
2230,-0.646569,0.063742,0.238004,
2250,-0.647817,0.0638934,0.23756,
2270,-0.648534,0.0644057,0.237264,
2290,-0.647975,0.0648405,0.23686,
2310,-0.647264,0.0653367,0.236298,
2330,-0.648111,0.066012,0.235308,
2350,-0.649562,0.0667177,0.233384,
2370,-0.64999,0.0674886,0.230923,
2390,-0.649595,0.068818,0.227757,
2410,-0.649062,0.0700877,0.223307,
2430,-0.647462,0.0717774,0.217422,
2450,-0.643915,0.0736134,0.209939,
2470,-0.640083,0.0746291,0.20119,
2490,-0.636688,0.0753336,0.19165,
2510,-0.634282,0.0758879,0.18167,
2530,-0.631833,0.077127,0.170955,
2550,-0.626578,0.0781288,0.160622,
2570,-0.621932,0.078501,0.14961,
2590,-0.62064,0.0800532,0.138073,
2610,-0.617389,0.0825965,0.125228,
2630,-0.610268,0.0846637,0.112019,
2650,-0.604733,0.0843963,0.0985182,
2670,-0.603733,0.0839104,0.0840812,
2690,-0.602663,0.0834931,0.0689985,
2710,-0.598424,0.0823113,0.0542665,
2730,-0.595649,0.0804716,0.0386824,
2750,-0.591859,0.0795944,0.023238,
2770,-0.586916,0.077543,0.00756752,
2790,-0.583143,0.0730354,-0.00853706,
2810,-0.582854,0.0658827,-0.0247407,
2830,-0.583009,0.0571685,-0.0393423,
2850,-0.582989,0.0459835,-0.0524274,
2870,-0.582178,0.0312958,-0.0653329,
2890,-0.581132,0.0132245,-0.078129,
2910,-0.57808,-0.00538826,-0.0892359,
2930,-0.572661,-0.0251249,-0.0973897,
2950,-0.566225,-0.0481437,-0.104579,
2970,-0.561286,-0.0735008,-0.111874,
2990,-0.555288,-0.098947,-0.117287,
3010,-0.546986,-0.125812,-0.120033,
3030,-0.539925,-0.15378,-0.121136,
3050,-0.534828,-0.18202,-0.120463,
3070,-0.528766,-0.210402,-0.117859,
3090,-0.522791,-0.23791,-0.11248,
3110,-0.519161,-0.263924,-0.103558,
3130,-0.516964,-0.287229,-0.0924452,
3150,-0.513201,-0.307218,-0.0783373,
3170,-0.509378,-0.324013,-0.0610348,
3190,-0.507014,-0.337049,-0.0413089,
3210,-0.507369,-0.346375,-0.0196514,
3230,-0.51122,-0.352298,0.00305776,
3250,-0.518251,-0.355881,0.026685,
3270,-0.526171,-0.355519,0.0522952,
3290,-0.534367,-0.351702,0.0806341,
3310,-0.545413,-0.344599,0.109472,
3330,-0.56054,-0.334031,0.137894,
3350,-0.575166,-0.319973,0.166235,
3370,-0.587479,-0.302352,0.193172,
3390,-0.596338,-0.282392,0.217432,
3410,-0.60379,-0.259667,0.237837,
3430,-0.611332,-0.233872,0.254274,
3450,-0.614676,-0.2056,0.267193,
3470,-0.60967,-0.172515,0.272343,
3490,-0.603688,-0.138366,0.27584,
3510,-0.60151,-0.102838,0.280554,
3530,-0.59924,-0.0683799,0.283297,
3550,-0.597118,-0.0382394,0.282651,
3570,-0.594803,-0.0106332,0.280706,
3590,-0.589623,0.0169654,0.277228,
3610,-0.586505,0.04186,0.270425,
3630,-0.593902,0.0627009,0.259485,
3650,-0.602342,0.0820982,0.247431,
3670,-0.604654,0.0986895,0.234188,
3690,-0.605906,0.111091,0.219264,
3710,-0.611007,0.119639,0.202173,
3730,-0.616853,0.128725,0.182751,
3750,-0.617671,0.138108,0.162994,
3770,-0.615805,0.144534,0.142475,
3790,-0.615565,0.147555,0.120012,
3810,-0.617,0.148749,0.0966297,
3830,-0.61604,0.148745,0.0744226,
3850,-0.61479,0.146427,0.0537519,
3870,-0.610799,0.141156,0.0340904,
3890,-0.606407,0.133093,0.0154736,
3910,-0.601793,0.122464,-0.00142608,
3930,-0.596109,0.109524,-0.0161567,
3950,-0.592698,0.0937413,-0.0296647,
3970,-0.590626,0.0756319,-0.0405097,
3990,-0.587885,0.0553711,-0.0489181,
4010,-0.585331,0.03362,-0.0560379,
4030,-0.582034,0.0113977,-0.0602565,
4050,-0.579566,-0.0116638,-0.0617563,
4070,-0.578551,-0.0353131,-0.0608413,
4090,-0.577936,-0.0577652,-0.0580077,
4100,-0.578217,-0.0785083,-0.0527427,
4120,-0.57743,-0.0971287,-0.0443227,
4140,-0.575348,-0.114905,-0.0331747,
4160,-0.57411,-0.131341,-0.0203595,
4180,-0.57593,-0.145128,-0.00557191,
4200,-0.579271,-0.156172,0.0112417,
4220,-0.582744,-0.164122,0.0297609,
4240,-0.586385,-0.168956,0.0495821,
4260,-0.589127,-0.170296,0.0698266,
4280,-0.593891,-0.168473,0.0909804,
4300,-0.600851,-0.164919,0.113505,
4320,-0.610537,-0.158966,0.137109,
4340,-0.619663,-0.151045,0.160165,
4360,-0.628396,-0.140777,0.182665,
4380,-0.637735,-0.128428,0.204384,
4400,-0.647997,-0.113455,0.224748,
4420,-0.656191,-0.095868,0.243835,
4440,-0.662283,-0.0768731,0.261033,
4460,-0.669366,-0.0554798,0.274817,
4480,-0.675792,-0.0329212,0.285726,
4500,-0.677941,-0.00834899,0.292998,
4520,-0.674728,0.0172782,0.29691,
4540,-0.675632,0.0431763,0.298774,
4560,-0.685353,0.0683131,0.298879,
4580,-0.699387,0.0916853,0.295247,
4600,-0.705079,0.116096,0.289912,
4620,-0.700491,0.140323,0.282719,
4640,-0.695132,0.160986,0.272363,
4660,-0.700513,0.175711,0.25719,
4680,-0.705228,0.189065,0.239511,
4700,-0.705139,0.19956,0.219121,
4720,-0.705538,0.206722,0.196991,
4740,-0.706929,0.208526,0.17212,
4760,-0.707188,0.207456,0.144845,
4780,-0.701432,0.204212,0.117441,
4800,-0.695533,0.196786,0.0916415,
4820,-0.692564,0.184866,0.066362,
4840,-0.689458,0.167442,0.0414025,
4860,-0.683457,0.14719,0.016799,
4880,-0.675512,0.124081,-0.00539037,
4900,-0.666126,0.0980051,-0.0256538,
4920,-0.653187,0.0692325,-0.043445,
4940,-0.639547,0.0390108,-0.0593523,
4960,-0.625131,0.00973929,-0.0719236,
4980,-0.608015,-0.0182076,-0.0800358,
5000,-0.587837,-0.0451402,-0.0849875,
5020,-0.565553,-0.0696362,-0.086783,
5040,-0.542802,-0.0917438,-0.0839697,
5060,-0.52349,-0.112674,-0.0767806,
5080,-0.508839,-0.132112,-0.0666309,
5100,-0.49715,-0.149661,-0.0536496,
5120,-0.488694,-0.164808,-0.0376007,
5140,-0.483098,-0.176395,-0.0190373,
5160,-0.480725,-0.186593,0.00181287,
5180,-0.480909,-0.195134,0.02425,
5200,-0.482908,-0.201839,0.0480933,
5220,-0.488401,-0.206843,0.0735833,
5240,-0.496177,-0.208791,0.100537,
5260,-0.505667,-0.208087,0.128598,
5280,-0.517671,-0.204556,0.156912,
5300,-0.533913,-0.19819,0.184003,
5320,-0.554752,-0.187979,0.210065,
5340,-0.576161,-0.174518,0.234532,
5360,-0.592817,-0.157996,0.25672,
5380,-0.605728,-0.137673,0.275585,
5400,-0.617913,-0.112534,0.292395,
5420,-0.6259,-0.0845645,0.307582,
5440,-0.63237,-0.0559108,0.318404,
5460,-0.64301,-0.0259431,0.324824,
5480,-0.656451,0.00559387,0.329743,
5500,-0.662142,0.0380766,0.332434,
5520,-0.66464,0.0684969,0.332507,
5540,-0.672905,0.0949581,0.329146,
5560,-0.686684,0.117678,0.321613,
5580,-0.697324,0.137854,0.311671,
5600,-0.70066,0.154925,0.299211,
5620,-0.701531,0.167992,0.283284,
5640,-0.704257,0.178016,0.26308,
5660,-0.704903,0.18415,0.241557,
5680,-0.70526,0.18665,0.219912,
5700,-0.701881,0.185818,0.198381,
5720,-0.699108,0.182013,0.175447,
5740,-0.696463,0.176732,0.151774,
5760,-0.687839,0.170524,0.130442,
5780,-0.673508,0.160963,0.111714,
5800,-0.661626,0.14885,0.0938437,
5820,-0.652399,0.133886,0.0784306,
5840,-0.642872,0.116456,0.0650906,
5860,-0.635591,0.0977196,0.0539235,
5880,-0.627361,0.0772264,0.045714,
5900,-0.618627,0.0547252,0.0400762,
5920,-0.611187,0.0302735,0.0358999,
5940,-0.604756,0.00516839,0.0341936,
5960,-0.599761,-0.0202389,0.0353931,
5980,-0.593033,-0.0457996,0.0394023,
6000,-0.586813,-0.0700863,0.0450429,
6020,-0.580713,-0.0921647,0.0525521,
6040,-0.571411,-0.111768,0.0617846,
6060,-0.556702,-0.128161,0.0743228,
6080,-0.541084,-0.142098,0.0895027,
6100,-0.531783,-0.15356,0.106354,
6120,-0.530042,-0.163289,0.123982,
6140,-0.529095,-0.171287,0.14248,
6160,-0.526867,-0.177258,0.162317,
6180,-0.526041,-0.179612,0.183218,
6200,-0.528107,-0.178259,0.205858,
6220,-0.531954,-0.173269,0.230011,
6240,-0.53872,-0.163978,0.255732,
6260,-0.548854,-0.150484,0.280643,
6280,-0.562203,-0.133418,0.303668,
6300,-0.575072,-0.114093,0.32574,
6320,-0.585539,-0.0919649,0.345827,
6340,-0.594298,-0.0666135,0.362342,
6360,-0.605691,-0.0370416,0.374537,
6380,-0.61611,-0.00415205,0.384505,
6400,-0.621387,0.0315921,0.389765,
6420,-0.617657,0.0687197,0.391127,
6440,-0.60468,0.104892,0.391013,
6460,-0.586331,0.139293,0.387372,
6480,-0.573178,0.169676,0.379255,
6500,-0.565376,0.195741,0.366465,
6520,-0.560858,0.215074,0.348769,
6540,-0.5641,0.22793,0.326693,
6560,-0.572477,0.236517,0.301706,
6580,-0.57847,0.241809,0.275526,
6600,-0.578459,0.243506,0.248787,
6620,-0.577342,0.241883,0.22131,
6640,-0.573881,0.238535,0.193602,
6660,-0.566254,0.231894,0.166758,
6680,-0.559629,0.223017,0.141057,
6700,-0.553354,0.211441,0.117034,
6720,-0.549666,0.19415,0.0921088,
6740,-0.546194,0.173466,0.0676395,
6760,-0.545793,0.149543,0.0455474,
6780,-0.542183,0.122381,0.0275117,
6800,-0.535892,0.0927332,0.0116574,
6820,-0.529036,0.0609107,-0.00207935,
6840,-0.522256,0.0284678,-0.0121571,
6860,-0.517739,-0.00316711,-0.0191143,
6880,-0.514188,-0.0329352,-0.0225225,
6900,-0.509874,-0.0606385,-0.0225612,
6920,-0.504924,-0.0858877,-0.0190952,
6940,-0.499806,-0.108244,-0.0122191,
6960,-0.496828,-0.128409,-0.00196102,
6980,-0.497603,-0.145425,0.0116295,
7000,-0.501505,-0.159703,0.0282179,
7020,-0.507324,-0.170189,0.0466206,
7040,-0.514841,-0.177682,0.0674174,
7060,-0.522875,-0.182279,0.0901264,
7080,-0.532522,-0.184573,0.113615,
7100,-0.542885,-0.18448,0.138515,
7120,-0.554675,-0.181716,0.163141,
7140,-0.570698,-0.176379,0.18768,
7160,-0.585684,-0.168878,0.212374,
7180,-0.596105,-0.15895,0.236305,
7200,-0.605628,-0.145473,0.258087,
7220,-0.616782,-0.128232,0.277103,
7240,-0.626658,-0.10763,0.293235,
7260,-0.629905,-0.0845251,0.307548,
7280,-0.627519,-0.0597573,0.319283,
7300,-0.627894,-0.03404,0.327369,
7320,-0.635279,-0.00674645,0.331904,
7330,-0.642805,0.0214113,0.333944,
7350,-0.643016,0.0497578,0.333988,
7370,-0.642355,0.0783651,0.329563,
7390,-0.646386,0.105343,0.32026,
7410,-0.646893,0.129292,0.307827,
7430,-0.641437,0.149673,0.293087,
7450,-0.633305,0.165622,0.276087,
7470,-0.628485,0.177269,0.256037,
7490,-0.623718,0.185344,0.235122,
7510,-0.617373,0.189065,0.213524,
7530,-0.615748,0.186734,0.190084,
7550,-0.615111,0.178872,0.166532,
7570,-0.611745,0.167424,0.142916,
7590,-0.602484,0.15358,0.122235,
7610,-0.59243,0.135777,0.103412,
7630,-0.584913,0.114982,0.0859506,
7650,-0.579579,0.0909963,0.0704315,
7670,-0.574345,0.0652451,0.057916,
7690,-0.569802,0.038246,0.0484726,
7710,-0.566452,0.0102024,0.0420431,
7730,-0.561147,-0.0180093,0.0384771,
7750,-0.554138,-0.0443588,0.0386401,
7770,-0.547231,-0.0687091,0.0426324,
7790,-0.541325,-0.0908181,0.0491807,
7810,-0.536147,-0.110063,0.0578959,
7830,-0.532022,-0.126566,0.0697676,
7850,-0.529887,-0.140915,0.0840615,
7870,-0.528767,-0.15394,0.101995,
7890,-0.531926,-0.164266,0.122914,
7910,-0.53966,-0.171616,0.145976,
7930,-0.550263,-0.175626,0.169421,
7950,-0.560299,-0.175702,0.193564,
7970,-0.567633,-0.172001,0.217876,
7990,-0.576259,-0.165681,0.241848,
8010,-0.587428,-0.156822,0.263947,
8030,-0.599948,-0.14472,0.285048,
8050,-0.610613,-0.128277,0.304365,
8070,-0.616602,-0.108243,0.32272,
8090,-0.617103,-0.0852179,0.338229,
8110,-0.619582,-0.059769,0.348624,
8130,-0.626195,-0.0330925,0.356348,
8150,-0.63192,-0.00553461,0.36207,
8170,-0.634803,0.0218671,0.365161,
8190,-0.637256,0.0482267,0.364132,
8210,-0.640618,0.0733263,0.359196,
8230,-0.647066,0.0968266,0.350184,
8250,-0.655743,0.118325,0.336971,
8270,-0.660829,0.137447,0.321762,
8290,-0.663076,0.153915,0.303345,
8310,-0.663228,0.167763,0.282019,
8330,-0.66322,0.178186,0.257791,
8350,-0.665079,0.184422,0.232005,
8370,-0.665222,0.186761,0.205162,
8390,-0.658119,0.187783,0.179256,
8410,-0.6512,0.18513,0.155574,
8430,-0.648975,0.177088,0.133158,
8450,-0.646858,0.164464,0.11258,
8470,-0.642792,0.149163,0.0945854,
8490,-0.637091,0.131422,0.0800559,
8510,-0.630232,0.111071,0.0694927,
8530,-0.624125,0.0885363,0.0615787,
8550,-0.618117,0.0647967,0.0563742,
8570,-0.611691,0.0408554,0.0539449,
8590,-0.604456,0.0165512,0.0543109,
8610,-0.5958,-0.00800842,0.0571207,
8630,-0.585449,-0.0325137,0.0618296,
8650,-0.575249,-0.0557041,0.0692096,
8670,-0.567012,-0.0767482,0.0795057,
8690,-0.561663,-0.0959726,0.0920682,
8710,-0.558554,-0.113475,0.106608,
8730,-0.558592,-0.127684,0.12308,
8750,-0.557264,-0.137982,0.142008,
8770,-0.55638,-0.145653,0.161745,
8790,-0.559006,-0.150638,0.181702,
8810,-0.564338,-0.153387,0.202866,
8830,-0.573789,-0.153166,0.224297,
8850,-0.584401,-0.149995,0.246441,
8870,-0.596512,-0.144265,0.268011,
8890,-0.611079,-0.136125,0.28873,
8910,-0.628387,-0.125438,0.307892,
8930,-0.643863,-0.111013,0.32528,
8950,-0.654773,-0.092745,0.341558,
8970,-0.659435,-0.0704179,0.356101,
8990,-0.660849,-0.0447681,0.366713,
9010,-0.66394,-0.0167417,0.372477,
9030,-0.670219,0.0121035,0.37525,
9050,-0.675836,0.0392873,0.374672,
9060,-0.677899,0.065232,0.37141,
9090,-0.674706,0.0903355,0.364773,
9110,-0.672275,0.11306,0.354453,
9130,-0.674733,0.132121,0.339765,
9150,-0.676227,0.148047,0.322173,
9170,-0.672443,0.16209,0.303243,
9190,-0.666309,0.173027,0.282522,
9210,-0.66336,0.179486,0.261039,
9220,-0.661958,0.182836,0.237302,
9240,-0.654032,0.184556,0.213588,
9260,-0.642918,0.182663,0.192044,
9280,-0.633982,0.175977,0.172385,
9300,-0.628001,0.166264,0.152903,
9320,-0.621641,0.153361,0.136681,
9340,-0.614478,0.137252,0.124211,
9360,-0.60884,0.118396,0.114397,
9380,-0.604644,0.0980348,0.106485,
9400,-0.599064,0.076473,0.101746,
9420,-0.592601,0.0534513,0.0996736,
9440,-0.586344,0.0296159,0.100146,
9460,-0.580622,0.00606199,0.103474,
9480,-0.57495,-0.0168656,0.109292,
9500,-0.569184,-0.0390927,0.117582,
9520,-0.564549,-0.0596008,0.128606,
9540,-0.560717,-0.0781777,0.141956,
9560,-0.559025,-0.0941192,0.157178,
9580,-0.559966,-0.106983,0.175141,
9600,-0.562224,-0.117217,0.195294,
9620,-0.566302,-0.124566,0.21649,
9640,-0.572824,-0.128275,0.239096,
9660,-0.58095,-0.129204,0.26227,
9680,-0.58959,-0.127598,0.285454,
9700,-0.600631,-0.122175,0.307892,
9720,-0.616094,-0.111329,0.327303,
9740,-0.63346,-0.0947799,0.342375,
9760,-0.653876,-0.0765656,0.356644,
9780,-0.668654,-0.0561114,0.369144,
9800,-0.674545,-0.0329264,0.378962,
9820,-0.677888,-0.00585762,0.387056,
9840,-0.681271,0.0224959,0.390341,
9860,-0.684189,0.0497793,0.389343,
9880,-0.68495,0.074937,0.385582,
9900,-0.68829,0.0997045,0.378575,
9920,-0.696697,0.123866,0.367935,
9940,-0.703514,0.146542,0.354055,
9960,-0.704958,0.167307,0.336783,
9980,-0.705756,0.185801,0.316502,
10000,-0.708251,0.201367,0.294358,
10020,-0.715079,0.212531,0.27058,
10040,-0.719822,0.218473,0.247153,
10060,-0.722454,0.218557,0.222904,
10080,-0.725695,0.212217,0.196905,
10100,-0.723061,0.202697,0.171509,
10120,-0.711763,0.19165,0.149471,
10140,-0.69777,0.175677,0.129806,
10160,-0.689942,0.15595,0.109492,
10180,-0.685454,0.133276,0.0915769,
10200,-0.677124,0.109415,0.0770958,
10220,-0.665682,0.0843767,0.0657262,
10240,-0.653139,0.056931,0.0561567,
10260,-0.642936,0.0289087,0.0481554,
10280,-0.63384,0.00214879,0.0425935,
10300,-0.624355,-0.0230456,0.0395091,
10320,-0.613161,-0.0469004,0.0391831,
10340,-0.600682,-0.0689447,0.0411782,
10360,-0.587364,-0.0883087,0.045997,
10380,-0.57478,-0.104625,0.0533803,
10400,-0.56441,-0.117755,0.0634591,
10420,-0.558199,-0.128044,0.0755452,
10440,-0.552946,-0.135378,0.0906048,
10460,-0.549626,-0.140586,0.107847,
10480,-0.549003,-0.143106,0.127339,
10500,-0.550362,-0.142882,0.148146,
10520,-0.55322,-0.139577,0.170007,
10540,-0.55873,-0.132828,0.193176,
10560,-0.565797,-0.125085,0.21711,
10580,-0.577108,-0.116292,0.240761,
10600,-0.589716,-0.105638,0.264351,
10620,-0.605297,-0.0932703,0.286127,
10640,-0.620714,-0.0785861,0.308652,
10660,-0.634625,-0.0626598,0.329934,
10680,-0.648862,-0.04433,0.348023,
10700,-0.665294,-0.0235281,0.362725,
10720,-0.680713,-0.000825927,0.373602,
10740,-0.691636,0.022179,0.381149,
10760,-0.696078,0.046923,0.385354,
10780,-0.698633,0.075204,0.38394,
10800,-0.705315,0.101153,0.377214,
10820,-0.718574,0.123485,0.366078,
10840,-0.730749,0.142785,0.353119,
10860,-0.739694,0.158505,0.338748,
10880,-0.74589,0.168132,0.321998,
10900,-0.752869,0.173964,0.303,
10920,-0.761775,0.176073,0.283431,
10940,-0.768139,0.17373,0.263499,
10960,-0.770113,0.168778,0.243726,
10980,-0.767793,0.161565,0.22354,
11000,-0.763379,0.152146,0.203997,
11020,-0.755432,0.139333,0.185924,
11040,-0.746929,0.123033,0.16831,
11060,-0.739489,0.104152,0.151653,
11080,-0.730116,0.083734,0.137026,
11100,-0.717227,0.0621747,0.124986,
11120,-0.703408,0.0391163,0.11501,
11140,-0.690908,0.0148209,0.10643,
11160,-0.680378,-0.0101816,0.0997242,
11180,-0.671164,-0.0346751,0.0946112,
11200,-0.660925,-0.0575233,0.0917914,
11220,-0.648679,-0.0784986,0.0913676,
11240,-0.637195,-0.0982172,0.0925197,
11260,-0.627264,-0.116285,0.0957259,
11280,-0.618291,-0.131477,0.100601,
11300,-0.609819,-0.144034,0.107751,
11320,-0.603124,-0.153784,0.117279,
11340,-0.599406,-0.160856,0.128245,
11360,-0.597082,-0.164753,0.14077,
11380,-0.596392,-0.166192,0.153589,
11400,-0.59983,-0.164733,0.168002,
11420,-0.607135,-0.159841,0.183429,
11440,-0.61709,-0.152794,0.200123,
11460,-0.630082,-0.145187,0.21721,
11480,-0.645222,-0.137013,0.235882,
11500,-0.662582,-0.127525,0.254454,
11520,-0.679639,-0.116444,0.272534,
11540,-0.695302,-0.103717,0.287979,
11560,-0.71172,-0.0879043,0.300949,
11580,-0.726188,-0.0675647,0.311468,
11600,-0.736838,-0.0441765,0.31684,
11620,-0.744452,-0.0203331,0.317143,
11640,-0.747889,0.00377239,0.313231,
11660,-0.744594,0.0298434,0.30328,
11680,-0.744909,0.0557796,0.288979,
11700,-0.756098,0.0796731,0.271545,
11720,-0.773546,0.0980004,0.251894,
11740,-0.787538,0.112046,0.232673,
11760,-0.794568,0.121012,0.214182,
11780,-0.796785,0.126466,0.195704,
11800,-0.793384,0.129853,0.177407,
11820,-0.786473,0.128202,0.158309,
11840,-0.780462,0.123996,0.140137,
11860,-0.773083,0.115995,0.124928,
11880,-0.763136,0.103081,0.112041,
11900,-0.752332,0.0868343,0.102002,
11920,-0.74152,0.0687582,0.0952024,
11940,-0.728719,0.0499313,0.0914357,
11960,-0.71485,0.0301134,0.0896646,
11980,-0.702009,0.00948259,0.0901602,
12000,-0.690284,-0.0110836,0.0930058,
12020,-0.676454,-0.0314655,0.0987129,
12040,-0.663165,-0.0516519,0.106407,
12060,-0.65174,-0.0706868,0.116237,
12080,-0.641015,-0.0882731,0.128227,
12100,-0.630887,-0.103769,0.142063,
12120,-0.622738,-0.11727,0.157812,
12140,-0.617264,-0.128297,0.175064,
12160,-0.614005,-0.135862,0.193799,
12180,-0.612708,-0.140575,0.214757,
12200,-0.614782,-0.141571,0.237725,
12220,-0.618301,-0.139062,0.262591,
12240,-0.624104,-0.133899,0.288187,
12260,-0.633716,-0.125637,0.31324,
12280,-0.646185,-0.114649,0.336429,
12300,-0.660279,-0.101173,0.358165,
12320,-0.672141,-0.0852412,0.377054,
12340,-0.677174,-0.0670153,0.391991,
12360,-0.68233,-0.0450466,0.402829,
12380,-0.687784,-0.0182891,0.410228,
12400,-0.691002,0.00959948,0.41475,
12420,-0.693997,0.0361996,0.416566,
12440,-0.69951,0.0636851,0.414834,
12450,-0.707085,0.0905506,0.408778,
12470,-0.714056,0.114977,0.397857,
12490,-0.721968,0.135927,0.382,
12510,-0.729144,0.152941,0.363286,
12530,-0.732313,0.166251,0.339322,
12550,-0.73333,0.176383,0.311583,
12570,-0.73392,0.183543,0.284335,
12590,-0.728762,0.189388,0.256545,
12610,-0.72077,0.192608,0.228169,
12630,-0.713859,0.193261,0.199612,
12650,-0.705241,0.191238,0.17506,
12670,-0.699233,0.184013,0.154765,
12690,-0.69393,0.173656,0.135614,
12710,-0.686374,0.160029,0.119082,
12730,-0.678509,0.143588,0.105497,
12750,-0.674362,0.123709,0.0945585,
12770,-0.669018,0.100934,0.0874946,
12790,-0.660805,0.0748055,0.0832487,
12810,-0.652878,0.0478295,0.0814311,
12830,-0.645056,0.0203091,0.0823109,
12850,-0.637844,-0.00669742,0.086439,
12870,-0.629998,-0.0320172,0.0937918,
12890,-0.621812,-0.0554489,0.103912,
12910,-0.614867,-0.0761835,0.117276,
12930,-0.610645,-0.0933925,0.133532,
12950,-0.6081,-0.106959,0.152798,
12970,-0.608306,-0.116895,0.174719,
12990,-0.612064,-0.12238,0.199819,
13010,-0.620401,-0.12417,0.226574,
13030,-0.633967,-0.121897,0.254315,
13050,-0.647509,-0.115237,0.283294,
13070,-0.661279,-0.105947,0.312518,
13090,-0.675373,-0.0938062,0.340188,
13110,-0.690429,-0.07823,0.364511,
13130,-0.704109,-0.058175,0.385564,
13150,-0.713762,-0.0345333,0.404443,
13170,-0.716646,-0.00882203,0.418992,
13190,-0.717168,0.0183185,0.428479,
13210,-0.719416,0.0462341,0.432944,
13230,-0.72072,0.0742644,0.43467,
13250,-0.718185,0.101608,0.433914,
13270,-0.715375,0.128673,0.429237,
13290,-0.721784,0.155293,0.420184,
13310,-0.7312,0.17904,0.406895,
13330,-0.732966,0.199279,0.390256,
13350,-0.730389,0.215516,0.370911,
13370,-0.731546,0.225168,0.349292,
13390,-0.74156,0.227524,0.32547,
13410,-0.751004,0.223632,0.299814,
13430,-0.754402,0.215902,0.273161,
13450,-0.751667,0.207397,0.246589,
13470,-0.744098,0.198025,0.220996,
13490,-0.734289,0.187263,0.197998,
13510,-0.725978,0.17405,0.175909,
13530,-0.717258,0.159789,0.155319,
13550,-0.707034,0.144394,0.137329,
13570,-0.694629,0.12658,0.123524,
13590,-0.682933,0.106429,0.111712,
13610,-0.670485,0.0849054,0.102456,
13630,-0.658843,0.0631333,0.0969598,
13650,-0.649574,0.0397848,0.0943529,
13670,-0.641189,0.0160825,0.0941321,
13690,-0.631237,-0.00670268,0.0967395,
13710,-0.62196,-0.0283927,0.102128,
13730,-0.613853,-0.0491557,0.109892,
13750,-0.607547,-0.0683172,0.120148,
13770,-0.602463,-0.0843356,0.133471,
13790,-0.598803,-0.0981592,0.148949,
13810,-0.59754,-0.109107,0.16598,
13830,-0.597697,-0.117016,0.185266,
13850,-0.598811,-0.120078,0.206734,
13870,-0.604378,-0.117715,0.23106,
13890,-0.615086,-0.111462,0.257786,
13910,-0.627573,-0.102913,0.285542,
13930,-0.642374,-0.0911815,0.312131,
13950,-0.658523,-0.0746454,0.336953,
13970,-0.674677,-0.0544295,0.359523,
13990,-0.68509,-0.0315308,0.379216,
14010,-0.689886,-0.00611246,0.393435,
14030,-0.692505,0.0211965,0.401274,
14050,-0.691636,0.0496281,0.40288,
14070,-0.681789,0.0786708,0.399551,
14090,-0.666457,0.106882,0.391653,
14110,-0.657442,0.131268,0.379611,
14130,-0.65741,0.151459,0.36412,
14150,-0.65598,0.167311,0.346134,
14170,-0.654647,0.178467,0.324451,
14190,-0.659789,0.183665,0.299902,
14210,-0.664517,0.183656,0.272604,
14230,-0.659219,0.181668,0.246593,
14250,-0.64913,0.176154,0.222763,
14270,-0.643768,0.165644,0.200264,
14290,-0.641408,0.151842,0.177598,
14310,-0.636216,0.135909,0.15527,
14330,-0.62632,0.119078,0.137184,
14340,-0.615965,0.0983817,0.121953,
14360,-0.610127,0.0753585,0.107361,
14380,-0.608016,0.0505821,0.0946296,
14400,-0.605661,0.0235296,0.0838746,
14420,-0.60088,-0.00354639,0.0756229,
14440,-0.592095,-0.0296066,0.0708175,
14460,-0.582103,-0.0550598,0.0686405,
14480,-0.573629,-0.0792685,0.0689899,
14500,-0.568238,-0.101733,0.0714941,
14520,-0.564677,-0.122278,0.0765122,
14540,-0.562021,-0.139826,0.0844823,
14560,-0.560177,-0.154409,0.0948113,
14580,-0.56272,-0.165915,0.108482,
14600,-0.568967,-0.173968,0.125664,
14620,-0.577426,-0.177979,0.147342,
14640,-0.588481,-0.177144,0.172285,
14660,-0.604795,-0.171275,0.199425,
14680,-0.62747,-0.160962,0.227592,
14700,-0.652527,-0.146224,0.256475,
14720,-0.677414,-0.125966,0.284856,
14740,-0.696097,-0.0993923,0.31243,
14760,-0.705997,-0.0671375,0.338793,
14780,-0.700204,-0.0278891,0.35962,
14800,-0.687794,0.0148079,0.373379,
14820,-0.686872,0.0563707,0.38197,
14840,-0.690673,0.0916882,0.385566,
14860,-0.688172,0.121522,0.385301,
14880,-0.681305,0.146275,0.382223,
14900,-0.675144,0.167047,0.376164,
14920,-0.677157,0.181851,0.36514,
14940,-0.683744,0.191678,0.349509,
14960,-0.684737,0.19798,0.331236,
14980,-0.677879,0.200385,0.31082,
15000,-0.669293,0.199441,0.287747,
15020,-0.659903,0.195959,0.262812,
15040,-0.648074,0.190887,0.236568,
15060,-0.632222,0.184623,0.210006,
15080,-0.61148,0.176016,0.184463,
15100,-0.588135,0.163748,0.159616,
15120,-0.566909,0.149432,0.134711,
15140,-0.548244,0.1333,0.112043,
15160,-0.536358,0.113985,0.091835,
15180,-0.531344,0.0911525,0.0743767,
15200,-0.53224,0.0655997,0.0599867,
15220,-0.535003,0.0395703,0.048284,
15240,-0.537941,0.0135153,0.0398376,
15260,-0.538638,-0.0107954,0.034768,
15280,-0.535613,-0.0326839,0.03315,
15300,-0.532053,-0.0527724,0.0343797,
15320,-0.529116,-0.0704785,0.0378282,
15340,-0.52758,-0.0860426,0.0440068,
15360,-0.528923,-0.0999432,0.0525357,
15380,-0.534585,-0.112563,0.0636847,
15400,-0.541991,-0.126226,0.0777623,
15420,-0.549641,-0.137289,0.0954615,
15440,-0.558755,-0.144602,0.116929,
15460,-0.574746,-0.147665,0.140863,
15480,-0.595646,-0.147375,0.166608,
15500,-0.616727,-0.144959,0.193416,
15520,-0.635407,-0.140637,0.220654,
15540,-0.651818,-0.13323,0.248131,
15560,-0.665247,-0.121556,0.274374,
15580,-0.675135,-0.106453,0.298499,
15600,-0.683931,-0.0875589,0.321396,
15620,-0.691329,-0.0643995,0.340474,
15640,-0.695294,-0.0369729,0.354762,
15660,-0.693392,-0.00698785,0.364555,
15680,-0.685001,0.0234203,0.370944,
15700,-0.675427,0.052327,0.374214,
15720,-0.671522,0.0792766,0.373114,
15740,-0.673464,0.103388,0.367804,
15760,-0.675056,0.123864,0.35924,
15780,-0.67149,0.141001,0.34801,
15800,-0.664235,0.154333,0.332965,
15820,-0.658666,0.163854,0.313069,
15840,-0.654207,0.169476,0.29018,
15860,-0.647708,0.171515,0.266312,
15880,-0.635773,0.170607,0.242165,
15900,-0.618918,0.168082,0.218132,
15920,-0.600926,0.163518,0.194425,
15940,-0.584719,0.156734,0.17089,
15960,-0.56956,0.147592,0.149186,
15980,-0.560299,0.135553,0.128914,
16000,-0.555801,0.120552,0.110013,
16020,-0.55356,0.102533,0.0934075,
16040,-0.551345,0.0821599,0.0798892,
16060,-0.548898,0.0598566,0.0696966,
16080,-0.547056,0.0369962,0.0626748,
16100,-0.546927,0.0138897,0.0589992,
16120,-0.549651,-0.00964966,0.058915,
16140,-0.555565,-0.0330662,0.0617407,
16160,-0.562097,-0.0565951,0.0673157,
16180,-0.567595,-0.0793265,0.0758352,
16200,-0.572709,-0.10015,0.0874851,
16220,-0.580309,-0.119213,0.102637,
16240,-0.590464,-0.136608,0.120387,
16260,-0.603314,-0.152337,0.140445,
16280,-0.616588,-0.16545,0.16298,
16300,-0.630316,-0.174536,0.187374,
16320,-0.644975,-0.17949,0.213203,
16340,-0.660131,-0.180346,0.239323,
16360,-0.676033,-0.17718,0.264796,
16380,-0.692999,-0.169048,0.289096,
16400,-0.707076,-0.155844,0.313622,
16420,-0.71526,-0.138378,0.33756,
16440,-0.717661,-0.115432,0.358902,
16460,-0.721091,-0.0872298,0.376815,
16480,-0.724665,-0.055752,0.390455,
16500,-0.72703,-0.0234677,0.400263,
16520,-0.726132,0.0061395,0.405293,
16540,-0.720483,0.0345335,0.404615,
16560,-0.714528,0.0611266,0.39966,
16580,-0.704087,0.0852636,0.391537,
16600,-0.687619,0.105349,0.37966,
16620,-0.671215,0.122381,0.365688,
16640,-0.657714,0.136046,0.34952,
16660,-0.65111,0.145922,0.330706,
16680,-0.650217,0.150841,0.308217,
16700,-0.648172,0.152152,0.284105,
16720,-0.644623,0.150677,0.259981,
16740,-0.637678,0.148373,0.236838,
16760,-0.627311,0.142155,0.215549,
16780,-0.617183,0.131047,0.193762,
16800,-0.607682,0.11767,0.171014,
16820,-0.592372,0.104531,0.153126,
16840,-0.574284,0.0887855,0.140599,
16860,-0.561062,0.0709472,0.13032,
16880,-0.557251,0.0517185,0.121971,
16900,-0.56221,0.0309461,0.116315,
16920,-0.572062,0.00848431,0.113232,
16940,-0.580831,-0.0152748,0.113174,
16960,-0.58659,-0.039016,0.116032,
16980,-0.591077,-0.0623227,0.121918,
17000,-0.598158,-0.0847241,0.129609,
17020,-0.606276,-0.105434,0.138963,
17040,-0.614455,-0.124726,0.150391,
17060,-0.623906,-0.141632,0.163433,
17080,-0.633883,-0.155587,0.179385,
17100,-0.644201,-0.166945,0.199109,
17120,-0.655989,-0.174253,0.220939,
17140,-0.669666,-0.176337,0.244353,
17160,-0.684125,-0.174038,0.269577,
17180,-0.700399,-0.168376,0.294188,
17200,-0.716609,-0.159374,0.317733,
17220,-0.727816,-0.146407,0.340523,
17240,-0.733412,-0.129851,0.362591,
17260,-0.737826,-0.110909,0.382917,
17280,-0.744077,-0.0881712,0.400915,
17300,-0.747327,-0.062403,0.416696,
17320,-0.745802,-0.0358779,0.428789,
17340,-0.745272,-0.00915483,0.435256,
17360,-0.745333,0.0177191,0.436309,
17380,-0.739374,0.0445294,0.431575,
17400,-0.720983,0.0721309,0.42233,
17420,-0.698604,0.0988784,0.410618,
17440,-0.681132,0.120898,0.398625,
17460,-0.669797,0.136528,0.384353,
17480,-0.660886,0.149335,0.367159,
17500,-0.651049,0.158562,0.347116,
17520,-0.639122,0.164894,0.324719,
17540,-0.625863,0.168863,0.300688,
17560,-0.611985,0.169406,0.276256,
17570,-0.599437,0.166939,0.251175,
17590,-0.589922,0.161199,0.227556,
17610,-0.58412,0.151899,0.205407,
17630,-0.578603,0.140164,0.184253,
17650,-0.572544,0.125514,0.1658,
17670,-0.571704,0.108469,0.15002,
17690,-0.57552,0.0893681,0.135797,
17710,-0.579469,0.0672175,0.124731,
17730,-0.582342,0.0432001,0.118052,
17750,-0.587565,0.0194044,0.115113,
17770,-0.597943,-0.00333644,0.115674,
17790,-0.610484,-0.0265031,0.119641,
17810,-0.620996,-0.0510222,0.126332,
17830,-0.62803,-0.0743578,0.136205,
17850,-0.632582,-0.0942678,0.150384,
17870,-0.63763,-0.110807,0.168131,
17890,-0.647428,-0.122862,0.188174,
17910,-0.659705,-0.130563,0.211707,
17930,-0.671271,-0.134575,0.238763,
17950,-0.683216,-0.133963,0.26817,
17970,-0.701009,-0.128507,0.298216,
17990,-0.725375,-0.118122,0.330371,
18010,-0.750911,-0.105455,0.362986,
18030,-0.773601,-0.0908534,0.393659,
18050,-0.792839,-0.0723239,0.421247,
18070,-0.804269,-0.0502294,0.444744,
18090,-0.80702,-0.0246559,0.463448,
18110,-0.804663,0.0010452,0.475118,
18130,-0.801857,0.0268092,0.479232,
18150,-0.79633,0.052982,0.478768,
18170,-0.783591,0.0777467,0.47798,
18190,-0.768714,0.0993965,0.474654,
18210,-0.760876,0.119063,0.465793,
18230,-0.762172,0.135094,0.452684,
18250,-0.761725,0.148048,0.436239,
18270,-0.750756,0.159392,0.416338,
18290,-0.729455,0.171129,0.394054,
18310,-0.708131,0.18138,0.372566,
18330,-0.695305,0.188503,0.347566,
18350,-0.68149,0.193751,0.320482,
18370,-0.666256,0.195902,0.296884,
18390,-0.657539,0.192597,0.274689,
18410,-0.652383,0.186475,0.251112,
18430,-0.643853,0.17895,0.229698,
18450,-0.639025,0.167079,0.212794,
18470,-0.643045,0.14973,0.199779,
18490,-0.653127,0.127483,0.189054,
18510,-0.663361,0.10251,0.180952,
18530,-0.673088,0.0757401,0.174931,
18550,-0.679575,0.046862,0.171879,
18570,-0.681272,0.016563,0.172843,
18590,-0.681759,-0.014252,0.176765,
18610,-0.686154,-0.042421,0.183251,
18630,-0.692539,-0.0663257,0.193708,
18650,-0.698669,-0.0875262,0.206748,
18670,-0.703212,-0.107279,0.222819,
18690,-0.70639,-0.12464,0.242316,
18710,-0.711328,-0.137629,0.264028,
18730,-0.718689,-0.145964,0.287167,
18750,-0.727611,-0.150288,0.310303,
18770,-0.738313,-0.151429,0.333772,
18790,-0.748136,-0.148572,0.357381,
18810,-0.756966,-0.142392,0.380393,
18830,-0.767118,-0.13195,0.40271,
18850,-0.779844,-0.117987,0.424783,
18870,-0.795991,-0.10078,0.446536,
18890,-0.809903,-0.0812376,0.465984,
18910,-0.819921,-0.0578457,0.483031,
18930,-0.827175,-0.0303722,0.497617,
18950,-0.830727,-0.00135802,0.507388,
18970,-0.82912,0.0271613,0.510821,
18990,-0.830469,0.0547494,0.509557,
19010,-0.837111,0.078674,0.50494,
19030,-0.843164,0.0970698,0.497048,
19050,-0.842699,0.112054,0.486561,
19070,-0.837839,0.124978,0.470981,
19090,-0.83424,0.134401,0.450296,
19110,-0.834328,0.140231,0.425986,
19130,-0.830924,0.144499,0.398895,
19150,-0.821741,0.148272,0.371272,
19170,-0.809108,0.151993,0.34404,
19190,-0.797523,0.152513,0.316906,
19210,-0.788874,0.151677,0.292792,
19230,-0.78372,0.147907,0.27087,
19250,-0.776823,0.141779,0.250966,
19270,-0.766902,0.134321,0.234916,
19290,-0.760358,0.123849,0.221206,
19300,-0.756614,0.110866,0.208584,
19330,-0.753391,0.0946817,0.19946,
19350,-0.750684,0.0748099,0.193365,
19370,-0.749804,0.0521066,0.189836,
19390,-0.75,0.0270292,0.188985,
19410,-0.749514,0.00147069,0.191099,
19430,-0.746433,-0.0233327,0.196498,
19450,-0.743217,-0.0465489,0.205022,
19460,-0.742482,-0.0687836,0.215924,
19480,-0.744418,-0.0894575,0.228305,
19500,-0.745835,-0.107336,0.243429,
19520,-0.747194,-0.122,0.261812,
19540,-0.748855,-0.133073,0.282032,
19560,-0.750921,-0.140721,0.303768,
19580,-0.755513,-0.144664,0.326674,
19600,-0.765074,-0.144879,0.349923,
19620,-0.777265,-0.141745,0.373223,
19640,-0.789822,-0.135454,0.394824,
19660,-0.804241,-0.125143,0.41505,
19680,-0.817164,-0.111479,0.433602,
19700,-0.823752,-0.0941107,0.44902,
19720,-0.828259,-0.0714388,0.460826,
19740,-0.832149,-0.044839,0.469985,
19760,-0.834618,-0.0156128,0.475357,
19780,-0.836024,0.0147577,0.477704,
19800,-0.837074,0.0448651,0.476902,
19820,-0.83819,0.0727081,0.472343,
19840,-0.835626,0.10028,0.464567,
19860,-0.829853,0.126087,0.453722,
19880,-0.823931,0.14809,0.439466,
19900,-0.822254,0.163495,0.420936,
19920,-0.821003,0.173224,0.398685,
19940,-0.815315,0.178403,0.37486,
19960,-0.806107,0.179639,0.351506,
19980,-0.798722,0.17471,0.328371,
20000,-0.796063,0.165688,0.304348,
20020,-0.792069,0.154914,0.280913,
20040,-0.781635,0.14291,0.258846,
20060,-0.766896,0.130237,0.240122,
20080,-0.753879,0.115349,0.224235,
20100,-0.745036,0.0972593,0.210165,
20120,-0.740821,0.0761485,0.198256,
20140,-0.740074,0.0532333,0.189947,
20160,-0.738326,0.0300582,0.185568,
20180,-0.736397,0.00725524,0.184842,
20200,-0.736439,-0.0157057,0.187663,
20220,-0.738743,-0.0384009,0.193419,
20240,-0.742522,-0.0589744,0.203394,
20260,-0.746838,-0.077191,0.217739,
20280,-0.749944,-0.0926882,0.234968,
20300,-0.753256,-0.104339,0.254607,
20320,-0.760198,-0.111682,0.276709,
20340,-0.770729,-0.115144,0.300844,
20360,-0.779275,-0.116191,0.326831,
20380,-0.78567,-0.114222,0.353687,
20400,-0.79394,-0.108656,0.381259,
20420,-0.806367,-0.0995303,0.408123,
20440,-0.819117,-0.0876066,0.433368,
20460,-0.829504,-0.0729558,0.457303,
20480,-0.83347,-0.0538975,0.47941,
20500,-0.830555,-0.030642,0.49885,
20520,-0.828114,-0.00361321,0.514405,
20540,-0.827074,0.025596,0.523176,
20560,-0.821249,0.0549952,0.524821,
20580,-0.806379,0.083024,0.523214,
20600,-0.789718,0.108518,0.518972,
20620,-0.7829,0.129365,0.510256,
20640,-0.789551,0.144925,0.49658,
20660,-0.801924,0.155296,0.478817,
20680,-0.806717,0.16054,0.457613,
20700,-0.801495,0.164213,0.433321,
20720,-0.79144,0.167362,0.407192,
20740,-0.782931,0.168096,0.379411,
20760,-0.776695,0.167938,0.349703,
20780,-0.766252,0.167702,0.32069,
20800,-0.754459,0.166497,0.295645,
20820,-0.745829,0.160595,0.27262,
20840,-0.73819,0.151232,0.250168,
20860,-0.73331,0.140897,0.23074,
20880,-0.731735,0.128284,0.216504,
20900,-0.732434,0.111694,0.204015,
20920,-0.733355,0.0920681,0.192066,
20940,-0.734587,0.071643,0.183379,
20960,-0.733915,0.0501548,0.178574,
20980,-0.73165,0.0274739,0.17578,
21000,-0.727328,0.00570323,0.175441,
21020,-0.722947,-0.0153715,0.176855,
21040,-0.721051,-0.0375488,0.180712,
21060,-0.719687,-0.060567,0.187116,
21080,-0.718457,-0.0831843,0.195726,
21100,-0.716585,-0.104075,0.206107,
21120,-0.714606,-0.122992,0.219111,
21140,-0.713985,-0.139994,0.234016,
21160,-0.716767,-0.153789,0.250104,
21180,-0.722538,-0.164033,0.268193,
21200,-0.730325,-0.170412,0.288212,
21220,-0.739366,-0.171931,0.310585,
21240,-0.750256,-0.16935,0.333825,
21260,-0.761513,-0.163811,0.356942,
21280,-0.773177,-0.153873,0.379843,
21300,-0.78416,-0.138602,0.402299,
21320,-0.796574,-0.11856,0.422927,
21340,-0.808638,-0.0943418,0.441907,
21360,-0.814936,-0.0667592,0.459669,
21380,-0.815503,-0.0350037,0.474644,
21400,-0.81725,-0.00134392,0.484024,
21420,-0.821191,0.0316675,0.487433,
21440,-0.822491,0.0645253,0.484536,
21460,-0.816919,0.0944523,0.477038,
21480,-0.810871,0.119471,0.464851,
21500,-0.804964,0.139916,0.448712,
21520,-0.800456,0.155767,0.431012,
21540,-0.794615,0.164239,0.412848,
21560,-0.785383,0.166173,0.392141,
21580,-0.775911,0.164804,0.368687,
21600,-0.766381,0.163298,0.341803,
21620,-0.754713,0.161081,0.315149,
21640,-0.738522,0.156519,0.290749,
21660,-0.721524,0.148093,0.266762,
21680,-0.705801,0.138225,0.242732,
21700,-0.691557,0.125198,0.222868,
21720,-0.681386,0.107565,0.206241,
21740,-0.674717,0.0865293,0.191742,
21760,-0.669843,0.0636332,0.180177,
21780,-0.663597,0.0391392,0.173391,
21800,-0.659478,0.0127875,0.170163,
21820,-0.657664,-0.0152284,0.168933,
21840,-0.658798,-0.0430279,0.169968,
21860,-0.659552,-0.0688749,0.173858,
21880,-0.658323,-0.092768,0.180591,
21900,-0.655428,-0.114105,0.190432,
21920,-0.652827,-0.133328,0.203153,
21940,-0.652791,-0.149254,0.218754,
21960,-0.657571,-0.161682,0.237909,
21980,-0.66704,-0.170241,0.260461,
22000,-0.679785,-0.174772,0.286511,
22020,-0.697277,-0.175143,0.314409,
22040,-0.71759,-0.171774,0.343119,
22060,-0.739159,-0.162448,0.370926,
22080,-0.756944,-0.147732,0.398061,
22100,-0.769373,-0.129484,0.423474,
22120,-0.777372,-0.107912,0.445768,
22140,-0.782875,-0.0816795,0.463072,
22160,-0.786266,-0.0511563,0.475208,
22180,-0.787389,-0.0189853,0.484151,
22200,-0.786451,0.0116404,0.48957,
22220,-0.78286,0.0402157,0.490876,
22240,-0.779065,0.0681046,0.485275,
22260,-0.78048,0.0909528,0.475885,
22280,-0.7872,0.107278,0.463344,
22300,-0.789857,0.120412,0.44788,
22320,-0.783052,0.132638,0.429228,
22340,-0.769713,0.143097,0.405824,
22360,-0.755039,0.148848,0.376326,
22380,-0.736183,0.155286,0.345078,
22400,-0.708152,0.161738,0.316364,
22420,-0.685369,0.163302,0.289133,
22440,-0.671579,0.159235,0.260822,
22460,-0.655579,0.153575,0.233583,
22480,-0.634607,0.147206,0.210413,
22500,-0.616903,0.135619,0.192086,
22520,-0.608972,0.119192,0.176178,
22540,-0.608126,0.0996675,0.161904,
22560,-0.609933,0.0787106,0.151146,
22580,-0.610629,0.0565732,0.14508,
22600,-0.610294,0.0341747,0.142091,
22620,-0.610535,0.0114821,0.141269,
22640,-0.612277,-0.0109451,0.142991,
22660,-0.614108,-0.0325727,0.14812,
22680,-0.616023,-0.0545055,0.155593,
22700,-0.617016,-0.0759782,0.165622,
22710,-0.619187,-0.0959844,0.178916,
22730,-0.625351,-0.1144,0.194699,
22750,-0.635223,-0.130879,0.212323,
22770,-0.64525,-0.144459,0.232597,
22790,-0.655877,-0.154836,0.255059,
22810,-0.668816,-0.162175,0.27919,
22830,-0.682692,-0.165969,0.30384,
22850,-0.696914,-0.165137,0.327947,
22870,-0.71169,-0.160424,0.352124,
22890,-0.724651,-0.152902,0.376508,
22910,-0.737302,-0.14309,0.398682,
22930,-0.752114,-0.128886,0.41837,
22950,-0.765349,-0.111221,0.437058,
22970,-0.774383,-0.09049,0.45316,
22990,-0.783041,-0.0676982,0.465206,
23010,-0.789337,-0.04299,0.471482,
23030,-0.794065,-0.0167279,0.471978,
23050,-0.795305,0.00992733,0.468254,
23070,-0.793533,0.0345327,0.460286,
23090,-0.787694,0.0587378,0.448106,
23110,-0.77332,0.084801,0.432134,
23130,-0.753349,0.110046,0.414429,
23150,-0.734126,0.130685,0.395313,
23170,-0.722257,0.146362,0.371901,
23190,-0.714373,0.159133,0.345277,
23210,-0.70207,0.169095,0.319737,
23230,-0.689707,0.174805,0.297296,
23250,-0.682579,0.176835,0.27349,
23270,-0.674658,0.176457,0.246838,
23290,-0.664096,0.174948,0.22071,
23310,-0.648207,0.17051,0.198452,
23330,-0.630893,0.16086,0.178822,
23350,-0.616719,0.148506,0.158862,
23370,-0.607623,0.135224,0.139837,
23390,-0.602718,0.118835,0.125431,
23410,-0.597759,0.0997971,0.114499,
23430,-0.596601,0.0757053,0.104727,
23450,-0.599471,0.0487884,0.0965483,
23470,-0.602869,0.020117,0.0922239,
23490,-0.604935,-0.0084312,0.0923045,
23510,-0.604678,-0.0362131,0.0968819,
23530,-0.606725,-0.0622416,0.104356,
23550,-0.611658,-0.0850453,0.115294,
23570,-0.618398,-0.104747,0.13014,
23590,-0.625121,-0.120536,0.147497,
23610,-0.633433,-0.132239,0.168329,
23630,-0.643473,-0.141449,0.192942,
23650,-0.65493,-0.148057,0.219487,
23670,-0.668219,-0.151257,0.246432,
23690,-0.683626,-0.151301,0.274531,
23710,-0.699681,-0.148814,0.304078,
23730,-0.715757,-0.14386,0.333268,
23750,-0.731353,-0.135702,0.359975,
23770,-0.746898,-0.123092,0.385263,
23790,-0.764337,-0.10702,0.408222,
23810,-0.7824,-0.0896165,0.428288,
23830,-0.793443,-0.0698827,0.44434,
23850,-0.794991,-0.0464175,0.455161,
23870,-0.789866,-0.0190977,0.461784,
23890,-0.78368,0.00947519,0.464775,
23910,-0.777875,0.0371412,0.463958,
23930,-0.773175,0.062928,0.458775,
23950,-0.768549,0.0870332,0.449738,
23970,-0.760372,0.109594,0.436878,
23990,-0.745895,0.131045,0.420149,
24010,-0.724146,0.150152,0.399871,
24030,-0.704871,0.165396,0.373735,
24050,-0.692393,0.177515,0.341634,
24070,-0.680237,0.184556,0.307513,
24090,-0.663822,0.185925,0.276742,
24110,-0.642041,0.180699,0.249596,
24130,-0.62463,0.172212,0.22202,
24150,-0.616068,0.161233,0.19514,
24170,-0.610189,0.147895,0.171887,
24190,-0.602548,0.133168,0.152281,
24210,-0.596198,0.115133,0.135409,
24230,-0.593364,0.0962311,0.120978,
24250,-0.594531,0.0767337,0.109322,
24270,-0.595652,0.0565801,0.10137,
24290,-0.593145,0.0350098,0.0973556,
24310,-0.590108,0.0143877,0.0951898,
24330,-0.589016,-0.00618474,0.0949048,
24350,-0.588451,-0.026889,0.0974715,
24370,-0.587976,-0.0471734,0.102723,
24390,-0.588447,-0.0672752,0.111032,
24410,-0.590478,-0.0868502,0.122624,
24430,-0.595359,-0.10515,0.137169,
24450,-0.60275,-0.122004,0.154684,
24470,-0.612167,-0.136682,0.175361,
24490,-0.622597,-0.148847,0.199425,
24510,-0.635958,-0.158202,0.224944,
24530,-0.651568,-0.163691,0.252157,
24550,-0.669494,-0.166294,0.281142,
24570,-0.688247,-0.165085,0.311221,
24590,-0.705422,-0.159963,0.342208,
24600,-0.719408,-0.150149,0.372812,
24620,-0.730799,-0.134949,0.402352,
24640,-0.742778,-0.114876,0.429425,
24660,-0.755776,-0.0913269,0.453239,
24680,-0.765794,-0.0673717,0.471338,
24700,-0.771758,-0.0428567,0.481221,
24720,-0.776162,-0.0177035,0.486313,
24740,-0.777333,0.00750039,0.488752,
24760,-0.772735,0.0319474,0.487652,
24780,-0.76732,0.0551098,0.482426,
24800,-0.762359,0.0753128,0.473841,
24820,-0.756356,0.0922756,0.462685,
24840,-0.750213,0.106425,0.449386,
24860,-0.743738,0.118314,0.432604,
24880,-0.740253,0.12734,0.413215,
24900,-0.739331,0.131436,0.391599,
24920,-0.736014,0.132511,0.368356,
24940,-0.725897,0.133527,0.343479,
24960,-0.710989,0.135409,0.31705,
24980,-0.690304,0.1371,0.291027,
25000,-0.667754,0.137622,0.26513,
25020,-0.647436,0.136664,0.239814,
25040,-0.627295,0.134796,0.215552,
25060,-0.605464,0.131845,0.195358,
25080,-0.586113,0.127004,0.180762,
25100,-0.577318,0.117874,0.168106,
25120,-0.579032,0.105238,0.155735,
25140,-0.584467,0.0898158,0.145815,
25160,-0.590405,0.0716552,0.138723,
25180,-0.598814,0.0493045,0.135074,
25200,-0.60718,0.0236292,0.13254,
25220,-0.614373,-0.00459264,0.131793,
25240,-0.619258,-0.0336551,0.13313,
25260,-0.622683,-0.0628158,0.137419,
25280,-0.626566,-0.0908923,0.143961,
25300,-0.630369,-0.11691,0.152667,
25320,-0.634717,-0.14071,0.164308,
25340,-0.639947,-0.160294,0.178912,
25360,-0.646935,-0.175533,0.197711,
25380,-0.656511,-0.187256,0.219834,
25400,-0.669122,-0.19466,0.244322,
25420,-0.681246,-0.196148,0.271781,
25440,-0.692668,-0.192272,0.300456,
25460,-0.70471,-0.184896,0.328541,
25480,-0.715848,-0.172615,0.355861,
25500,-0.724216,-0.155539,0.383043,
25520,-0.727412,-0.131091,0.408991,
25540,-0.728985,-0.101073,0.432616,
25560,-0.728322,-0.0675093,0.452983,
25580,-0.725251,-0.0329638,0.469444,
25600,-0.717952,-0.000594571,0.479788,
25620,-0.708475,0.029531,0.486336,
25640,-0.69973,0.0572319,0.489516,
25660,-0.692459,0.0831017,0.488784,
25680,-0.688834,0.106044,0.484249,
25700,-0.679936,0.125411,0.475729,
25720,-0.666491,0.141255,0.463334,
25740,-0.65749,0.152707,0.448307,
25760,-0.654244,0.16058,0.429356,
25780,-0.649201,0.166651,0.407895,
25800,-0.639305,0.170245,0.386005,
25820,-0.630975,0.170293,0.363617,
25840,-0.624658,0.16751,0.339926,
25860,-0.615863,0.163815,0.314357,
25880,-0.60226,0.15844,0.289327,
25900,-0.585772,0.151138,0.265732,
25920,-0.567101,0.142505,0.243197,
25940,-0.551137,0.133166,0.222344,
25960,-0.542187,0.121464,0.204099,
25980,-0.539347,0.105522,0.189364,
26000,-0.541709,0.0853307,0.177737,
26020,-0.54634,0.0626973,0.170285,
26040,-0.551582,0.0396444,0.167172,
26060,-0.557432,0.0176011,0.167998,
26080,-0.565635,-0.00448947,0.172495,
26100,-0.576232,-0.0259243,0.179915,
26120,-0.586169,-0.0461183,0.190924,
26140,-0.595038,-0.0648273,0.205376,
26160,-0.6049,-0.0804469,0.222764,
26180,-0.616132,-0.0919709,0.243054,
26200,-0.628598,-0.100876,0.265807,
26220,-0.641509,-0.107485,0.290161,
26240,-0.654949,-0.111395,0.315292,
26260,-0.668881,-0.111214,0.341876,
26280,-0.6832,-0.107189,0.368876,
26300,-0.699212,-0.0992601,0.395183,
26320,-0.71882,-0.0864536,0.419518,
26340,-0.736561,-0.0692723,0.440348,
26360,-0.748793,-0.0465745,0.457088,
26380,-0.755055,-0.0182304,0.471016,
26400,-0.755343,0.0120913,0.481838,
26420,-0.752664,0.0420879,0.487974,
26440,-0.746818,0.0698087,0.489561,
26460,-0.739186,0.0946738,0.488497,
26480,-0.731995,0.115873,0.485127,
26500,-0.728131,0.132919,0.478987,
26520,-0.724731,0.147636,0.46906,
26540,-0.718316,0.160115,0.45311,
26560,-0.709734,0.169306,0.430649,
26580,-0.699012,0.177379,0.403886,
26600,-0.684651,0.181622,0.376493,
26620,-0.670476,0.180623,0.349815,
26640,-0.652403,0.17489,0.32292,
26660,-0.632103,0.167153,0.296955,
26680,-0.612448,0.157777,0.27565,
26700,-0.597463,0.146022,0.258035,
26720,-0.586436,0.132596,0.242067,
26740,-0.579354,0.117042,0.228402,
26760,-0.577673,0.0991507,0.217836,
26780,-0.578409,0.0801883,0.210288,
26800,-0.579034,0.0588961,0.206939,
26820,-0.582161,0.0357025,0.206143,
26840,-0.587561,0.0114498,0.207493,
26860,-0.594409,-0.0125664,0.210532,
26880,-0.599211,-0.0347684,0.21658,
26900,-0.601603,-0.0546348,0.226507,
26920,-0.605508,-0.0716973,0.23921,
26940,-0.61288,-0.0866518,0.254606,
26960,-0.622702,-0.0988972,0.272237,
26980,-0.63418,-0.108775,0.292698,
27000,-0.646862,-0.116333,0.315331,
27020,-0.659456,-0.120837,0.339468,
27040,-0.673676,-0.12231,0.364515,
27060,-0.68907,-0.120819,0.390548,
27080,-0.703424,-0.116259,0.416795,
27100,-0.714226,-0.108844,0.444547,
27120,-0.724337,-0.0988155,0.471171,
27140,-0.737604,-0.083667,0.495668,
27160,-0.753278,-0.0649119,0.517201,
27180,-0.767866,-0.0438826,0.533986,
27200,-0.776777,-0.0203543,0.546902,
27220,-0.777295,0.00663937,0.558233,
27240,-0.770225,0.037958,0.565136,
27260,-0.767529,0.0695199,0.566363,
27280,-0.775902,0.0992016,0.56615,
27300,-0.782118,0.125199,0.564288,
27320,-0.779697,0.148436,0.55774,
27340,-0.775581,0.169682,0.546109,
27360,-0.777338,0.184991,0.530776,
27380,-0.779752,0.192537,0.511935,
27400,-0.780707,0.194255,0.491068,
27420,-0.778964,0.194407,0.468403,
27440,-0.770651,0.194354,0.443175,
27460,-0.756506,0.195017,0.416619,
27480,-0.741483,0.192395,0.391675,
27500,-0.731632,0.184866,0.364891,
27520,-0.724506,0.173451,0.33775,
27540,-0.714851,0.159038,0.311881,
27560,-0.700929,0.144866,0.288373,
27580,-0.685843,0.129973,0.270032,
27600,-0.672929,0.112129,0.254208,
27620,-0.667923,0.0917415,0.237589,
27640,-0.665298,0.0689107,0.222718,
27660,-0.659647,0.042012,0.211415,
27680,-0.65183,0.0125665,0.204372,
27700,-0.644347,-0.0171425,0.20062,
27720,-0.637871,-0.0456146,0.199333,
27740,-0.632698,-0.0724474,0.199768,
27760,-0.628283,-0.0973753,0.203922,
27780,-0.624165,-0.119961,0.212531,
27800,-0.621227,-0.139686,0.224387,
27820,-0.619525,-0.156398,0.239105,
27840,-0.617855,-0.169907,0.256772,
27850,-0.619752,-0.179894,0.277775,
27870,-0.627509,-0.186308,0.302248,
27890,-0.639672,-0.190079,0.329101,
27910,-0.653237,-0.190606,0.357333,
27930,-0.666791,-0.186686,0.387174,
27950,-0.681075,-0.178123,0.417825,
27970,-0.695532,-0.165009,0.448501,
27990,-0.706214,-0.148878,0.477088,
28010,-0.714761,-0.129413,0.501705,
28030,-0.725406,-0.105801,0.522236,
28050,-0.738269,-0.0782255,0.54056,
28070,-0.743339,-0.0483005,0.555754,
28090,-0.736134,-0.0178204,0.567504,
28110,-0.729329,0.013467,0.576784,
28130,-0.734396,0.0447677,0.584002,
28150,-0.74263,0.0728,0.58947,
28170,-0.747511,0.0972412,0.588427,
28190,-0.750638,0.121003,0.580024,
28210,-0.755015,0.140552,0.566889,
28230,-0.755446,0.155468,0.5498,
28250,-0.753129,0.165137,0.528442,
28270,-0.749263,0.170735,0.502914,
28290,-0.742051,0.174134,0.47476,
28310,-0.729368,0.174464,0.446032,
28330,-0.717771,0.172071,0.416952,
28350,-0.705049,0.168953,0.389206,
28370,-0.690503,0.163722,0.362806,
28390,-0.679772,0.154718,0.339011,
28410,-0.673418,0.142042,0.318594,
28430,-0.667539,0.125692,0.300661,
28450,-0.660635,0.10673,0.286388,
28470,-0.656422,0.0859784,0.274262,
28490,-0.654152,0.0633472,0.264609,
28510,-0.650302,0.0387952,0.258198,
28530,-0.644559,0.0128541,0.25357,
28550,-0.63935,-0.0139072,0.249923,
28570,-0.633423,-0.0395436,0.249015,
28590,-0.626719,-0.0646951,0.25102,
28610,-0.62069,-0.0887384,0.254658,
28630,-0.61454,-0.111794,0.261064,
28650,-0.609919,-0.133444,0.270431,
28670,-0.608291,-0.153553,0.282163,
28690,-0.611168,-0.172019,0.296166,
28710,-0.617303,-0.188462,0.312533,
28730,-0.623871,-0.202374,0.331547,
28750,-0.63122,-0.213832,0.353025,
28770,-0.640778,-0.222027,0.376552,
28790,-0.652814,-0.226344,0.401843,
28810,-0.667285,-0.226531,0.428007,
28830,-0.682834,-0.221624,0.454653,
28850,-0.697566,-0.211016,0.482146,
28870,-0.712807,-0.196201,0.509106,
28890,-0.727514,-0.177953,0.533563,
28910,-0.74053,-0.155334,0.554296,
28930,-0.751825,-0.127788,0.570618,
28950,-0.759921,-0.0960165,0.583494,
28970,-0.761134,-0.0627782,0.592785,
28990,-0.757068,-0.0271479,0.5967,
29010,-0.756284,0.00928493,0.59828,
29030,-0.760419,0.042988,0.598649,
29050,-0.766136,0.070433,0.596275,
29070,-0.773817,0.0914865,0.590817,
29090,-0.785551,0.107319,0.583027,
29110,-0.79973,0.115523,0.570945,
29130,-0.814283,0.11801,0.554409,
29150,-0.824179,0.118055,0.536482,
29170,-0.826748,0.117461,0.516417,
29190,-0.821567,0.117801,0.4942,
29210,-0.80915,0.116639,0.468966,
29230,-0.795526,0.114022,0.440705,
29250,-0.783129,0.111994,0.413179,
29270,-0.773228,0.107669,0.38931,
29290,-0.765555,0.0993224,0.366527,
29310,-0.759509,0.0880074,0.346011,
29330,-0.753078,0.0731671,0.32998,
29350,-0.745264,0.0544353,0.318347,
29370,-0.737319,0.0325025,0.309363,
29390,-0.730646,0.00743546,0.301948,
29410,-0.724046,-0.0188597,0.296912,
29430,-0.716064,-0.0458105,0.294931,
29450,-0.706581,-0.0726297,0.295512,
29470,-0.695857,-0.0993728,0.298888,
29490,-0.685317,-0.124345,0.303742,
29510,-0.675461,-0.14834,0.31099,
29530,-0.665137,-0.170424,0.319495,
29540,-0.656265,-0.189509,0.330874,
29570,-0.648999,-0.205397,0.34489,
29590,-0.643453,-0.218485,0.361645,
29610,-0.642186,-0.228087,0.381938,
29630,-0.646065,-0.235499,0.405194,
29650,-0.653993,-0.240027,0.429356,
29670,-0.664618,-0.241787,0.453593,
29690,-0.67776,-0.240219,0.478849,
29710,-0.690495,-0.234779,0.504963,
29730,-0.701978,-0.22646,0.529008,
29740,-0.712745,-0.21616,0.551515,
29760,-0.722887,-0.203999,0.572802,
29780,-0.732589,-0.188049,0.592079,
29800,-0.743406,-0.168253,0.609202,
29820,-0.754035,-0.146932,0.624541,
29840,-0.764123,-0.124645,0.636591,
29860,-0.776545,-0.100375,0.646108,
29880,-0.787301,-0.0746951,0.653664,
29900,-0.792891,-0.0483893,0.657472,
29920,-0.797625,-0.0211604,0.657139,
29940,-0.806668,0.00566673,0.653372,
29960,-0.816747,0.0291546,0.645692,
29980,-0.820336,0.0500396,0.632823,
30000,-0.817488,0.0699922,0.616143,
30020,-0.813021,0.0897363,0.598829,
30040,-0.811142,0.106776,0.582183,
30060,-0.808975,0.120611,0.562755,
30080,-0.804477,0.131939,0.540284,
30100,-0.803479,0.139115,0.518139,
30120,-0.805498,0.142027,0.495562,
30140,-0.805566,0.144568,0.47406,
30160,-0.806233,0.142175,0.456203,
30180,-0.814619,0.133769,0.436025,
30200,-0.826999,0.120573,0.413708,
30220,-0.831617,0.105677,0.392752,
30240,-0.824171,0.0906126,0.375353,
30260,-0.810349,0.0740181,0.360553,
30280,-0.798416,0.056387,0.345819,
30300,-0.791518,0.0374734,0.331967,
30320,-0.785829,0.0178363,0.320605,
30340,-0.778155,-0.00427939,0.312786,
30360,-0.767925,-0.0273064,0.306913,
30380,-0.757323,-0.0506089,0.303493,
30400,-0.748877,-0.0755498,0.302342,
30420,-0.743811,-0.100327,0.303713,
30440,-0.738904,-0.124877,0.307704,
30460,-0.732191,-0.148637,0.313177,
30480,-0.724105,-0.17087,0.320754,
30500,-0.715042,-0.190948,0.331281,
30520,-0.709823,-0.208437,0.344451,
30540,-0.70785,-0.223684,0.361228,
30560,-0.710677,-0.236591,0.381448,
30580,-0.717728,-0.2456,0.404529,
30600,-0.727089,-0.250536,0.429428,
30620,-0.73729,-0.251642,0.455538,
30640,-0.746477,-0.248545,0.482267,
30660,-0.756153,-0.240854,0.509053,
30680,-0.767164,-0.230253,0.534997,
30700,-0.779637,-0.216859,0.55837,
30720,-0.792583,-0.19986,0.579206,
30740,-0.80274,-0.179821,0.598773,
30760,-0.807158,-0.157259,0.615154,
30780,-0.808171,-0.131851,0.62729,
30800,-0.807563,-0.103262,0.635451,
30820,-0.806291,-0.0726402,0.640971,
30840,-0.803695,-0.0425886,0.642965,
30860,-0.802088,-0.0153123,0.64079,
30880,-0.803082,0.00971961,0.635197,
30900,-0.803357,0.0345866,0.626708,
30920,-0.800985,0.0565253,0.614339,
30940,-0.795694,0.0730224,0.598477,
30960,-0.789678,0.0847461,0.579791,
30980,-0.78505,0.0937245,0.559164,
31000,-0.782592,0.0993074,0.538654,
31020,-0.78301,0.0999944,0.519131,
31040,-0.782956,0.0985283,0.497746,
31060,-0.779309,0.0953504,0.475143,
31080,-0.773358,0.0896326,0.454094,
31100,-0.767388,0.0815668,0.435849,
31120,-0.763461,0.0716884,0.417514,
31140,-0.761166,0.0605912,0.401035,
31160,-0.757607,0.0472427,0.387699,
31180,-0.753356,0.0313747,0.376551,
31200,-0.748094,0.014126,0.367883,
31220,-0.743867,-0.00429366,0.36199,
31240,-0.742764,-0.0242795,0.358406,
31260,-0.740253,-0.0463712,0.356861,
31280,-0.736694,-0.0701453,0.356914,
31300,-0.732509,-0.0937919,0.358671,
31320,-0.727302,-0.116225,0.362678,
31340,-0.721369,-0.137218,0.368862,
31360,-0.716451,-0.158626,0.376988,
31380,-0.712113,-0.179057,0.386204,
31400,-0.708178,-0.19721,0.398527,
31420,-0.705287,-0.213596,0.414295,
31440,-0.704484,-0.228032,0.43222,
31460,-0.707652,-0.240754,0.452584,
31480,-0.716525,-0.251469,0.474966,
31500,-0.726536,-0.260065,0.49872,
31520,-0.73581,-0.26525,0.523423,
31540,-0.743322,-0.266621,0.548734,
31560,-0.754835,-0.263218,0.572331,
31580,-0.769601,-0.255334,0.596287,
31600,-0.782612,-0.244675,0.620338,
31620,-0.793933,-0.231312,0.641735,
31640,-0.804828,-0.213987,0.660579,
31660,-0.814357,-0.191982,0.677103,
31680,-0.818212,-0.166143,0.691364,
31700,-0.818155,-0.138753,0.701729,
31720,-0.818104,-0.111691,0.706775,
31740,-0.821014,-0.0847637,0.708549,
31760,-0.824388,-0.0574091,0.708577,
31780,-0.824103,-0.0321078,0.705919,
31800,-0.820732,-0.00903513,0.698767,
31820,-0.81637,0.0135817,0.686732,
31840,-0.809835,0.0339968,0.670741,
31860,-0.801664,0.0509581,0.652162,
31880,-0.791183,0.0639619,0.632167,
31900,-0.780174,0.0728775,0.609329,
31920,-0.769197,0.0782554,0.582661,
31940,-0.758102,0.0824555,0.556292,
31960,-0.746546,0.082376,0.533338,
31980,-0.732997,0.0797275,0.508703,
32000,-0.716413,0.0783134,0.48218,
32020,-0.699686,0.075585,0.457871,
32040,-0.684356,0.0683344,0.436222,
32060,-0.672227,0.0572318,0.41403,
32080,-0.658701,0.0444685,0.392925,
32100,-0.645089,0.0303525,0.374136,
32120,-0.634768,0.0139065,0.359271,
32140,-0.627564,-0.00623907,0.346258,
32160,-0.622739,-0.0279922,0.335442,
32180,-0.619203,-0.0511405,0.328256,
32200,-0.617798,-0.0750891,0.323579,
32220,-0.617387,-0.0988703,0.322724,
32240,-0.616785,-0.121613,0.324903,
32260,-0.615477,-0.143377,0.329947,
32280,-0.616239,-0.164234,0.337047,
32300,-0.618519,-0.182378,0.347814,
32320,-0.622412,-0.198373,0.362498,
32340,-0.628991,-0.211615,0.380209,
32360,-0.63796,-0.22218,0.401377,
32380,-0.649469,-0.229755,0.424138,
32400,-0.662971,-0.233256,0.448802,
32420,-0.678267,-0.232924,0.475134,
32440,-0.694158,-0.230271,0.502648,
32460,-0.710578,-0.225215,0.53087,
32480,-0.727077,-0.217044,0.5579,
32500,-0.74157,-0.205682,0.582775,
32520,-0.750416,-0.190726,0.605009,
32540,-0.753767,-0.171937,0.625196,
32560,-0.75456,-0.147189,0.639017,
32580,-0.759948,-0.11977,0.647515,
32600,-0.768684,-0.0916038,0.654114,
32620,-0.767465,-0.0634363,0.660637,
32640,-0.753819,-0.0360175,0.667082,
32660,-0.740332,-0.00948916,0.668878,
32680,-0.735811,0.0151235,0.664329,
32700,-0.735097,0.0377237,0.655186,
32720,-0.728528,0.0573646,0.644768,
32740,-0.71555,0.072785,0.632366,
32760,-0.706996,0.0835463,0.615284,
32780,-0.706966,0.0909627,0.594115,
32800,-0.704467,0.0957285,0.570232,
32820,-0.694909,0.0994055,0.54557,
32840,-0.682061,0.102036,0.51971,
32860,-0.667227,0.10206,0.49169,
32880,-0.649283,0.101425,0.460619,
32900,-0.622771,0.101059,0.428844,
32920,-0.592724,0.0997948,0.39777,
32940,-0.564763,0.0988894,0.367712,
32960,-0.539493,0.0956453,0.341894,
32980,-0.525768,0.0871655,0.320866,
32990,-0.522676,0.0729884,0.305072,
33010,-0.525743,0.0545342,0.293719,
33030,-0.531781,0.0341069,0.285723,
33050,-0.540994,0.010723,0.279068,
33070,-0.550661,-0.016155,0.273797,
33090,-0.558265,-0.045991,0.270337,
33110,-0.5634,-0.0775726,0.269033,
33130,-0.566916,-0.108316,0.27023,
33150,-0.570967,-0.137364,0.274738,
33170,-0.575531,-0.164789,0.282335,
33190,-0.580764,-0.190082,0.293284,
33210,-0.587036,-0.212368,0.307782,
33230,-0.595073,-0.231131,0.325808,
33250,-0.604886,-0.2462,0.347604,
33270,-0.617382,-0.257466,0.372422,
33290,-0.631069,-0.265097,0.398874,
33310,-0.645953,-0.269074,0.426008,
33330,-0.660964,-0.26914,0.454234,
33350,-0.675615,-0.266269,0.483617,
33370,-0.689151,-0.260559,0.513453,
33390,-0.699692,-0.251469,0.54278,
33410,-0.712281,-0.239234,0.571566,
33430,-0.727664,-0.224012,0.598381,
33450,-0.742194,-0.206718,0.622703,
33470,-0.753033,-0.18615,0.644995,
33490,-0.759906,-0.163358,0.664546,
33510,-0.762915,-0.139394,0.680649,
33530,-0.764928,-0.113709,0.692031,
33550,-0.767731,-0.0867539,0.698978,
33570,-0.769746,-0.060165,0.702392,
33590,-0.766824,-0.0338807,0.702823,
33610,-0.760524,-0.00840622,0.700341,
33630,-0.757078,0.0149027,0.693481,
33650,-0.76233,0.0343051,0.682311,
33670,-0.769984,0.0489727,0.666921,
33690,-0.765983,0.0598002,0.649469,
33710,-0.747846,0.0697067,0.63046,
33730,-0.727795,0.078607,0.609335,
33750,-0.714072,0.0873191,0.584678,
33770,-0.704325,0.093789,0.558533,
33790,-0.695145,0.0956035,0.533761,
33810,-0.684141,0.092855,0.510141,
33830,-0.672311,0.0880883,0.487085,
33850,-0.662425,0.0807647,0.466171,
33870,-0.655205,0.0692747,0.445921,
33890,-0.64785,0.0554453,0.425959,
33910,-0.640275,0.040053,0.408263,
33930,-0.635673,0.0228411,0.392913,
33950,-0.631624,0.00325544,0.379567,
33970,-0.627537,-0.0181749,0.368651,
33990,-0.623413,-0.0403173,0.360183,
34010,-0.619876,-0.0627282,0.354429,
34030,-0.618125,-0.0852612,0.351326,
34050,-0.617283,-0.108129,0.350914,
34070,-0.616701,-0.130913,0.353257,
34090,-0.617365,-0.152077,0.359551,
34110,-0.618707,-0.17139,0.369153,
34130,-0.621624,-0.18819,0.381614,
34150,-0.62385,-0.202068,0.397772,
34170,-0.625872,-0.213574,0.415912,
34190,-0.629269,-0.221672,0.435436,
34210,-0.63633,-0.226041,0.457464,
34230,-0.647097,-0.226604,0.481226,
34250,-0.659019,-0.224626,0.506968,
34270,-0.669752,-0.219566,0.533474,
34290,-0.679613,-0.210982,0.55966,
34310,-0.689803,-0.198847,0.585458,
34330,-0.703168,-0.183511,0.609398,
34350,-0.715875,-0.16573,0.631593,
34370,-0.722545,-0.1466,0.651263,
34390,-0.724102,-0.125074,0.667119,
34410,-0.72528,-0.100611,0.67966,
34430,-0.726687,-0.0742594,0.688171,
34450,-0.726583,-0.0482728,0.692124,
34470,-0.724215,-0.0231681,0.692354,
34490,-0.723112,0.000906274,0.690258,
34510,-0.723572,0.0227805,0.685412,
34530,-0.725024,0.0410026,0.677526,
34550,-0.727486,0.0559989,0.666919,
34570,-0.730669,0.0674462,0.653542,
34590,-0.732534,0.0765349,0.637992,
34610,-0.732322,0.0838733,0.620293,
34630,-0.729858,0.0900425,0.601683,
34650,-0.727936,0.0944408,0.582348,
34670,-0.726307,0.0968312,0.561335,
34690,-0.720778,0.0985355,0.539517,
34710,-0.714066,0.0987142,0.518842,
34730,-0.70813,0.0963245,0.49897,
34750,-0.702659,0.0915951,0.478323,
34770,-0.695476,0.0845045,0.458525,
34790,-0.688993,0.0750499,0.440728,
34810,-0.682141,0.0635157,0.424613,
34830,-0.676171,0.0504121,0.410196,
34850,-0.672101,0.03414,0.396853,
34870,-0.670088,0.0147792,0.385647,
34890,-0.666154,-0.00597492,0.377311,
34900,-0.660888,-0.0277289,0.371973,
34920,-0.655685,-0.0500008,0.369511,
34940,-0.651654,-0.0726059,0.369713,
34960,-0.649645,-0.0942288,0.37263,
34980,-0.647727,-0.113908,0.378668,
35000,-0.645456,-0.131593,0.387641,
35020,-0.644652,-0.146105,0.399626,
35040,-0.646345,-0.158964,0.413527,
35060,-0.649445,-0.170947,0.42951,
35080,-0.652852,-0.182,0.447942,
35100,-0.658756,-0.190543,0.469313,
35120,-0.667951,-0.197103,0.492579,
35140,-0.676999,-0.200662,0.516088,
35160,-0.685495,-0.200782,0.539686,
35180,-0.694188,-0.196726,0.562125,
35200,-0.703185,-0.188609,0.583139,
35220,-0.709859,-0.176758,0.603766,
35240,-0.712344,-0.160112,0.623773,
35260,-0.709138,-0.138013,0.641713,
35280,-0.70835,-0.111286,0.654955,
35300,-0.712409,-0.0814869,0.664041,
35320,-0.715636,-0.05082,0.671095,
35340,-0.714751,-0.0205632,0.67741,
35360,-0.711283,0.0074775,0.681385,
35380,-0.710915,0.0340213,0.681105,
35400,-0.713338,0.0596048,0.676202,
35420,-0.71321,0.0827271,0.667833,
35440,-0.71161,0.100223,0.656014,
35460,-0.712334,0.111854,0.640568,
35480,-0.711944,0.119746,0.622935,
35500,-0.709811,0.124051,0.602959,
35520,-0.70526,0.124635,0.580992,
35540,-0.699423,0.122563,0.55741,
35560,-0.691923,0.118978,0.534289,
35580,-0.685859,0.112014,0.510904,
35600,-0.683203,0.101866,0.487116,
35620,-0.67957,0.0904871,0.465027,
35640,-0.671055,0.0788358,0.445077,
35660,-0.662439,0.0656423,0.426497,
35680,-0.655279,0.0514962,0.409247,
35700,-0.649345,0.0360837,0.394764,
35720,-0.645532,0.0185903,0.382926,
35740,-0.644183,8.9407e-07,0.373574,
35760,-0.643126,-0.0194305,0.367686,
35780,-0.644205,-0.0408156,0.36462,
35800,-0.645781,-0.0641984,0.364044,
35820,-0.64735,-0.0877437,0.367145,
35840,-0.64785,-0.110657,0.373247,
35860,-0.649702,-0.132066,0.381416,
35880,-0.65257,-0.151544,0.393209,
35900,-0.65692,-0.168976,0.407904,
35920,-0.662128,-0.184058,0.425323,
35940,-0.667307,-0.197178,0.445614,
35960,-0.673587,-0.207502,0.468694,
35980,-0.683517,-0.213174,0.494364,
36000,-0.696564,-0.215521,0.520943,
36020,-0.707267,-0.215486,0.548213,
36040,-0.714205,-0.21202,0.576067,
36060,-0.721494,-0.205424,0.603831,
36080,-0.731472,-0.196021,0.630358,
36100,-0.739206,-0.18403,0.655454,
36120,-0.743444,-0.168948,0.678602,
36140,-0.746946,-0.149644,0.698429,
36160,-0.751179,-0.126853,0.714717,
36180,-0.752988,-0.102886,0.727761,
36200,-0.751776,-0.0780822,0.738608,
36220,-0.749548,-0.0532405,0.746931,
36240,-0.750078,-0.0285747,0.750921,
36260,-0.752411,-0.00502068,0.75095,
36280,-0.753591,0.0158878,0.748546,
36300,-0.752033,0.033505,0.743838,
36320,-0.750578,0.048958,0.735807,
36340,-0.751354,0.0631079,0.725374,
36360,-0.753118,0.0759453,0.71375,
36380,-0.752912,0.0879432,0.701654,
36400,-0.751159,0.0972424,0.687685,
36420,-0.752631,0.103832,0.670992,
36440,-0.753723,0.109225,0.652938,
36460,-0.750565,0.114249,0.634041,
36480,-0.745557,0.117276,0.613084,
36500,-0.742123,0.118404,0.592104,
36520,-0.742102,0.117567,0.571168,
36540,-0.745144,0.114403,0.550941,
36560,-0.748134,0.10831,0.533409,
36580,-0.749895,0.102494,0.516422,
36600,-0.751699,0.0942413,0.500431,
36620,-0.754148,0.0840783,0.486398,
36640,-0.755542,0.0726795,0.474344,
36660,-0.758482,0.0597459,0.461813,
36680,-0.760009,0.0453205,0.450558,
36700,-0.758296,0.0308211,0.440899,
36720,-0.753256,0.0163721,0.432483,
36740,-0.74706,0.000323445,0.424188,
36760,-0.740699,-0.0155795,0.416713,
36780,-0.733195,-0.0301323,0.410056,
36800,-0.723284,-0.0443315,0.404551,
36820,-0.713086,-0.0586677,0.399657,
36840,-0.704661,-0.0705854,0.396214,
36860,-0.6968,-0.0806346,0.39419,
36880,-0.688892,-0.0906588,0.392883,
36900,-0.682701,-0.0998144,0.391934,
36920,-0.677639,-0.10597,0.392496,
36940,-0.671959,-0.110917,0.394235,
36960,-0.666868,-0.114426,0.395646,
36980,-0.663312,-0.116662,0.395984,
37000,-0.660024,-0.117487,0.396519,
37020,-0.653526,-0.117018,0.39789,
37040,-0.646184,-0.116372,0.399097,
37060,-0.64318,-0.11494,0.399542,
37080,-0.642878,-0.112757,0.399934,
37100,-0.642622,-0.110173,0.400328,
37120,-0.640963,-0.106805,0.400287,
37140,-0.638607,-0.10316,0.399412,
37160,-0.635081,-0.0996872,0.397963,
37180,-0.631863,-0.097224,0.396364,
37200,-0.630737,-0.0951489,0.394893,
37220,-0.630184,-0.0933426,0.393441,
37240,-0.629303,-0.0919126,0.391819,
37260,-0.628537,-0.089644,0.39033,
37280,-0.626773,-0.0862644,0.389143,
37300,-0.62437,-0.0836833,0.387517,
37320,-0.623106,-0.0818833,0.385227,
37340,-0.622387,-0.0791307,0.382674,
37360,-0.619992,-0.0766113,0.380827,
37380,-0.618305,-0.0744608,0.378659,
37400,-0.617485,-0.0725382,0.376911,
37420,-0.617481,-0.0712108,0.375693,
37440,-0.617673,-0.0705004,0.374967,
37460,-0.618873,-0.0700028,0.373739,
37480,-0.620487,-0.0698172,0.373062,
37500,-0.622321,-0.0694153,0.372836,
37520,-0.624377,-0.0686043,0.372645,
37540,-0.626249,-0.0676524,0.372504,
37560,-0.626943,-0.0665468,0.372343,
37580,-0.627001,-0.0652153,0.371896,
37600,-0.627393,-0.0638124,0.371996,
