Timestamp, Electrode 1, Electrode 2, Electrode 3, Electrode 4, Electrode 5, Electrode 6, Electrode 7, Electrode 8, Marker
0,5,2,-3,1,-1,6,-3,-11,0
5,-20,1,-2,1,4,16,2,2,0
10,7,-1,0,3,-3,-2,3,-10,0
15,10,1,-6,-7,1,-2,5,-10,0
20,4,-12,1,1,-1,9,-17,1,0
25,14,-3,-1,-7,6,-3,-1,-10,0
30,-4,-20,-8,-8,-3,-1,-3,-6,0
35,-2,-4,-7,-6,-11,8,-14,16,0
40,0,6,1,-7,4,15,14,3,0
45,-1,32,-2,-10,0,29,-13,1,0
50,1,14,2,-10,3,10,26,6,0
55,-1,22,-1,-2,-10,-9,9,9,0
60,0,-2,-7,0,-11,18,-30,14,0
65,0,-14,2,-14,-5,-15,3,26,0
70,4,-8,-5,12,-6,-13,-13,32,0
75,15,-28,14,4,-11,7,-14,76,0
80,12,-23,-2,5,-2,-15,-12,114,0
85,75,54,44,35,40,56,65,-19,0
90,-79,-87,-28,-8,-21,-39,-88,-91,0
95,12,-56,-21,2,-11,-45,-25,-68,0
100,-118,-3,0,10,-7,-4,-17,-22,0
105,-115,17,-5,11,-8,-7,18,124,0
110,-103,59,9,-7,2,2,33,118,0
115,-69,11,-5,-15,-8,-11,5,37,0
120,-5,1,1,1,12,-10,-2,-18,0
125,16,-10,11,20,17,3,-5,10,0
130,46,-11,0,1,13,48,-29,70,0
135,55,-15,-4,1,3,33,-35,120,0
140,55,-27,0,-15,-33,58,8,127,0
145,39,43,-9,-30,23,-4,27,59,0
150,32,40,-16,34,15,-33,35,51,0
155,22,-15,-4,-18,0,4,-6,104,0
160,10,-29,4,10,0,-16,-9,104,0
165,14,-15,18,-14,-15,11,-15,29,0
170,8,-10,2,-6,-11,22,-3,15,0
175,-2,23,-3,4,14,-5,4,35,0
180,-2,6,2,-7,-4,-19,3,-30,0
185,-9,-18,0,3,-2,-2,-6,-61,0
190,-9,-7,0,-1,-2,-12,6,-53,0
195,-3,8,-7,0,-10,0,14,-22,0
200,4,22,-3,-1,-1,8,2,-53,0
205,-11,16,0,3,-1,14,-1,-76,0
210,-9,0,1,-20,-5,3,-2,-58,0
215,-18,-3,-3,-7,-7,-5,9,-32,0
220,-1,15,-3,-4,12,5,6,-34,0
225,1,6,0,9,2,0,12,-55,0
230,-1,-1,6,1,-6,2,-2,14,0
235,5,-1,-3,-13,-2,-2,-2,38,0
240,6,16,-3,-7,16,12,-11,-2,0
245,-4,1,-4,2,0,12,-22,10,0
250,0,-12,-7,-11,-2,-12,14,-15,0
255,-46,-11,-8,0,-9,-30,-11,-37,0
260,-113,-20,-4,17,1,-22,16,-9,0
265,-126,-20,1,13,-1,-25,10,38,0
270,-128,0,-2,13,-4,-5,-7,108,0
275,-27,-14,1,-4,-14,2,-9,80,0
280,47,16,0,12,7,-18,-10,75,0
285,88,0,-3,-11,-11,20,-14,-12,0
290,108,20,-2,-20,-4,17,-33,-19,0
295,81,-3,1,-19,2,-2,18,-89,0
300,72,-3,-3,-2,3,18,-43,-58,0
305,72,-14,-7,-19,2,-21,-9,5,0
310,56,-35,-8,-13,1,-41,10,57,0
315,38,-2,7,38,-1,-10,67,94,0
320,34,-11,3,13,-1,-14,66,76,0
325,30,25,-6,17,-10,-3,71,45,0
330,20,-17,-13,-33,-5,15,-66,50,0
335,14,-14,-8,8,-3,27,-120,35,0
340,17,-27,9,-2,0,26,-128,2,0
345,8,13,5,-17,0,16,-52,-14,0
350,7,54,11,-23,0,-3,21,-89,0
355,6,41,-13,-9,3,-2,33,-128,0
360,2,-7,-19,10,1,2,26,-128,0
365,2,-41,-1,12,2,-1,9,-74,0
370,3,-36,-4,15,-1,1,9,-56,0
375,2,-13,8,-13,-6,-5,6,-1,0
380,-1,23,-1,-11,-8,-4,-5,42,0
385,1,-8,-6,-21,-17,-14,-30,75,0
390,18,-3,1,4,-3,-8,-9,90,0
395,50,19,4,10,6,-13,-17,31,0
400,1,13,-1,-7,-3,-11,-8,2,0
405,-16,26,2,12,9,3,-37,-59,0
410,43,-3,1,3,-1,-8,-15,-55,0
415,89,-21,-4,-5,5,-7,-46,-26,0
420,21,-11,3,4,-1,4,-15,-17,0
425,19,-45,-7,0,4,4,55,-34,0
430,-7,-8,-4,0,-8,4,50,22,0
435,38,14,-6,-6,4,-7,61,25,0
440,-38,33,-1,-12,0,-2,81,16,0
445,-12,42,-1,-9,0,-2,69,54,0
450,-95,18,-3,-4,0,2,38,-114,0
455,-102,16,1,-1,-8,7,-2,-117,0
460,-31,4,-5,4,1,2,16,-97,0
465,-16,-2,-3,9,-8,-2,92,113,0
470,44,-5,-4,9,-6,5,108,74,0
475,71,-19,1,-5,-6,-2,127,44,0
480,79,-12,0,-9,4,0,81,-58,0
485,-36,-12,4,5,-2,10,32,-121,0
490,-12,-6,8,6,7,14,-11,-46,0
495,-74,-14,0,-1,0,12,-85,-69,0
500,10,-27,-2,-3,5,0,-94,-44,0
505,45,-71,0,-6,4,-1,-105,1,0
510,-3,-117,-2,-8,-1,-13,-116,18,0
515,-18,-128,2,-4,3,-13,-69,12,0
520,13,-93,2,-1,-4,-8,0,23,0
525,9,-51,-6,-3,-6,-14,43,31,0
530,19,-3,-1,7,-1,-11,-4,15,0
535,69,31,-3,2,5,-1,-15,72,0
540,24,65,-8,-15,-8,-15,-23,32,0
545,65,89,-1,-4,1,-7,-69,-37,0
550,76,91,-6,-5,2,-10,-53,-23,0
555,54,79,1,-1,-1,6,-45,-3,0
560,2,68,2,1,5,4,-20,-22,0
565,-36,75,-1,1,0,3,4,-44,0
570,-9,68,0,-2,-5,-3,26,-33,0
575,-15,62,-5,1,-3,-9,29,-4,0
580,-21,46,-2,1,-8,-1,9,32,0
585,-25,37,-1,2,-6,4,-3,55,0
590,-3,30,-1,-1,-5,5,-4,57,0
595,22,3,-2,-3,-7,5,45,45,0
600,-50,-41,-2,-2,-3,3,85,50,0
605,45,-44,0,1,0,6,19,-46,0
610,97,-35,4,0,2,9,-15,-9,0
615,99,-24,0,-6,-7,-4,-66,34,0
620,127,-95,-6,-2,4,9,-15,127,0
625,-21,-105,-4,2,5,-2,-46,127,0
630,2,-43,-3,4,5,-3,-28,-111,0
635,54,3,-1,-1,2,-1,-86,-128,0
640,-54,54,1,-8,-2,-11,-62,-128,0
645,-87,119,-2,3,3,-13,30,-65,0
650,-128,114,-5,-6,-6,-8,42,28,0
655,-128,125,4,0,0,3,73,32,0
660,-120,122,2,4,-1,5,91,40,0
665,-58,8,-2,-2,1,3,-105,81,0
670,94,-60,-2,-18,-5,0,-6,85,0
675,97,-70,0,1,1,3,-106,44,0
680,105,-98,-4,1,-3,7,-128,78,0
685,-47,-58,0,15,21,14,-27,51,0
690,-70,-66,-1,5,3,-14,-128,52,0
695,-128,-66,0,-3,-1,-10,-61,21,0
700,-117,-42,-4,1,0,-1,80,26,0
705,-74,-16,-2,2,2,-5,38,20,0
710,-83,-13,-3,-23,-28,-12,-73,17,0
715,-17,-22,-4,-20,-18,-20,4,-7,0
720,22,-12,3,1,-2,-10,41,-4,0
725,82,-15,-4,5,0,2,104,4,0
730,33,-11,2,29,26,26,24,2,0
735,0,-12,-4,13,19,20,56,-5,0
740,33,-1,3,-1,9,10,74,-3,0
745,58,-13,1,17,25,10,59,0,0
750,16,-10,-1,2,4,-4,-67,-3,0
755,2,-10,1,-8,-23,-17,-59,-5,0
760,5,-8,1,-4,-1,-6,34,-3,0
765,40,-10,0,-23,-27,-11,-40,-5,0
770,-8,-7,-1,-3,-12,-1,-43,-6,0
775,-17,-9,-3,-10,-19,5,-59,-9,0
780,-1,-3,-1,9,11,12,61,-7,0
785,15,-3,-1,20,21,27,89,-14,0
790,3,-2,0,0,0,-4,-32,-14,0
795,-7,10,1,-20,-26,-27,-77,-3,0
800,6,5,-4,-1,-15,-12,6,5,0
805,26,0,-9,-20,-21,-17,-93,3,0
810,2,2,-8,-1,3,7,-45,6,0
815,1,-2,-6,0,2,20,-22,-6,0
820,1,9,-5,-6,9,23,23,0,0
825,6,-11,-3,3,32,15,48,-1,0
830,-14,-2,-5,-1,10,2,7,-1,0
835,-17,-27,-1,-27,-17,-38,-31,-1,0
840,-12,-22,3,-13,-5,-13,-3,-5,0
845,4,-17,6,8,-5,-4,87,1,0
850,-6,-20,5,5,-15,-19,-30,2,0
855,-7,-8,6,24,20,-14,29,4,0
860,-2,-10,9,3,-2,-11,26,4,0
865,4,6,-1,-24,-22,-25,-87,-2,0
870,-9,-3,4,1,-7,-10,-20,-9,0
875,-7,5,3,29,27,5,32,-8,0
880,-2,-5,-2,4,-3,-12,8,-7,0
885,-5,3,-5,-29,-43,-37,-94,-7,0
890,-1,9,-2,0,-5,4,-17,-5,0
895,-5,10,-5,7,8,21,71,-2,0
900,-6,15,-1,-4,12,7,21,-11,0
905,10,17,-4,7,16,31,17,14,0
910,8,18,4,1,8,18,12,21,0
915,8,-5,0,22,42,41,97,9,0
920,19,2,5,-2,12,14,9,-11,0
925,5,4,7,-11,8,0,-5,-37,0
930,10,10,-1,-20,-12,-9,-31,20,0
935,6,3,-1,15,16,27,62,23,0
940,5,9,-7,6,-10,10,14,12,0
945,-10,-24,-6,-8,-19,-5,-11,11,0
950,-10,-17,-5,17,2,15,22,-6,0
955,-16,-11,3,1,-12,8,77,2,0
960,-15,-20,-3,5,-1,-1,18,16,0
965,4,-1,0,-12,-26,-22,-54,7,0
970,-5,3,-5,-10,-16,-19,-5,0,0
975,-2,7,-3,21,31,9,41,6,0
980,5,7,-4,13,13,-1,9,-16,0
985,2,9,-2,2,-5,-15,-88,0,0
990,-1,-7,-2,-6,4,-5,-24,-1,0
995,-8,-9,0,-16,-13,-8,-128,9,0
1000,-6,-6,-1,-3,9,11,-128,-11,0
1005,8,8,0,11,10,19,-52,-10,0
1010,2,-3,0,3,5,2,127,-32,0
1015,2,6,-1,-8,-11,-11,78,-54,0
1020,-3,-1,-2,0,9,-4,-22,-43,0
1025,2,-5,0,2,2,6,20,-34,0
1030,3,-2,0,-3,3,-2,8,-6,0
1035,4,-2,-2,-9,-3,-6,-52,35,0
1040,3,-6,5,1,1,-4,-117,63,0
1045,-3,-5,2,6,14,8,-32,37,0
1050,-3,-4,3,6,6,-3,68,7,0
1055,-5,-2,-2,-2,-14,-1,55,-15,0
1060,-3,2,-2,3,-6,-4,-27,-9,0
1065,-11,4,-2,-8,-10,-12,19,-2,0
1070,-8,-2,-2,4,2,-2,64,-1,0
1075,-4,-1,2,2,-1,-6,27,-13,0
1080,-2,11,0,3,-10,2,-11,-19,0
1085,3,1,-1,7,-3,8,30,-13,0
1090,-2,2,-6,-4,-10,-8,41,-30,0
1095,1,3,5,-2,-3,1,13,-42,0
1100,3,1,-5,-5,1,3,-8,-70,0
1105,2,3,-6,4,0,11,12,-117,0
1110,3,6,1,-4,4,10,12,13,0
1115,-4,-4,-3,-4,-6,-7,12,-124,0
1120,-1,2,0,-2,-5,5,-6,-89,0
1125,2,-1,-2,-4,-2,-2,3,1,0
1130,3,-4,1,-2,-2,-1,1,26,0
1135,-1,-2,-2,-6,-5,-1,-6,101,0
1140,-6,-9,-1,4,3,3,-30,127,0
1145,-4,-10,-3,4,10,-1,-12,119,0
1150,2,-5,-1,9,14,10,6,114,0
1155,4,-4,-2,-4,-14,-4,-8,42,0
1160,4,-3,2,-1,-4,1,-14,99,0
1165,1,-2,-2,-10,-9,-5,-10,54,0
1170,-5,-3,-3,-10,-9,-14,4,-75,0
1175,2,6,-7,18,28,9,7,45,0
1180,-5,-1,-2,2,1,3,-12,101,0
1185,-4,1,2,3,7,-2,0,-14,0
1190,-4,3,1,-5,-8,-8,-6,62,0
1195,-2,-5,-3,-7,-2,-6,-15,81,0
1200,1,-9,3,-6,-14,-10,-4,-60,0
1205,-2,-1,-2,6,5,0,7,-25,0
1210,0,1,-5,-2,-7,0,7,-128,0
1215,-4,-4,1,-7,-2,0,5,-128,0
1220,0,-4,-5,7,6,2,-2,-78,0
1225,-3,-6,3,-6,-5,-9,-5,-128,0
1230,0,0,0,1,7,4,2,-92,0
1235,-3,4,1,-14,-10,-7,-2,-46,0
1240,-2,2,-2,-10,-2,-12,-5,-21,0
1245,-2,0,-2,-7,-11,-6,-3,-76,0
1250,0,0,2,11,8,15,13,-48,0
1255,2,-3,3,14,16,8,10,2,0
1260,0,-1,2,-6,-1,-1,-9,18,0
1265,1,-4,-3,4,9,6,2,-75,0
1270,1,0,-4,-4,2,-1,4,-75,0
1275,1,2,-6,-5,5,-7,-8,-128,0
1280,3,5,-6,1,-5,-5,-5,-96,0
1285,3,5,-2,3,1,-6,-6,127,0
1290,-5,-5,-3,-20,-17,-10,-3,8,0
1295,-3,-6,-3,-5,-6,-5,-1,127,0
1300,-3,1,-5,5,1,-4,1,-22,0
1305,-2,-8,1,-17,-22,-14,-1,-6,0
1310,-4,-3,5,-27,-26,-31,-19,-90,0
1315,2,2,-1,-5,-7,-1,-1,-43,0
1320,-4,4,2,-12,-13,-4,-7,53,0
1325,-8,4,1,-12,-11,-4,-9,-7,0
1330,-1,-2,1,21,27,13,7,39,0
1335,-1,-1,-3,9,0,-3,-2,9,0
1340,-1,0,-3,1,13,14,3,16,0
1345,-3,-6,-3,-3,1,-4,-4,-56,0
1350,2,0,-2,-5,-12,-13,-6,-85,0
1355,-3,-5,-3,-16,-16,-2,-8,-67,0
1360,-2,-2,1,20,17,9,10,40,0
1365,-3,2,1,-25,-26,-24,-22,-78,0
1370,-10,-6,1,1,-5,4,-3,18,0
1375,-7,-4,-4,-16,-18,-14,-6,-71,0
1380,4,-5,-4,-14,-26,-12,-5,-48,0
1385,4,-6,2,15,12,14,10,-16,0
1390,2,-1,2,-1,3,-3,-6,-94,0
1395,5,3,3,-2,0,1,3,52,0
1400,-6,0,-2,-11,-6,-5,-5,62,0
1405,-1,2,-2,6,9,-1,2,17,0
1410,-1,2,1,-7,-7,-6,-1,27,0
1415,4,3,5,5,6,-3,0,-13,0
1420,-4,-4,-3,-25,-21,-16,-12,-42,0
1425,1,-2,-2,2,-4,0,1,31,0
1430,-2,1,-2,-6,-4,-2,-3,15,0
1435,-2,-4,-1,21,30,22,17,67,0
1440,-3,0,4,1,-2,-7,-5,6,0
1445,-6,0,-6,-40,-39,-23,-15,-78,0
1450,-1,0,-2,-8,-5,-5,-7,-23,0
1455,-4,6,3,4,1,-6,-2,-23,0
1460,3,-1,-2,-12,-22,-14,-15,-4,0
1465,1,-2,-5,-2,-2,-12,-11,-21,0
1470,2,1,-4,5,12,10,3,36,0
1475,-3,-11,0,0,5,5,-5,26,0
1480,-1,-1,4,-17,-19,-16,-11,-61,0
1485,-1,-3,-1,-1,-4,-2,-2,15,0
1490,3,0,0,21,22,4,11,53,0
1495,-1,2,0,-6,-11,2,-3,-19,0
1500,0,-3,-2,15,15,13,3,11,0
1505,2,-1,-2,-19,-20,-13,-9,-56,0
1510,-1,-3,1,1,0,4,3,11,0
1515,-4,3,1,-22,-22,-18,-13,-22,0
1520,5,3,2,11,19,5,6,3,0
1525,3,8,0,-3,0,-8,-7,-72,0
1530,1,0,-4,-15,-18,-6,-5,-57,0
1535,-2,1,-2,-3,-1,-4,-5,-42,0
1540,-4,4,2,7,6,-1,2,-4,0
1545,-1,6,3,-12,-19,-12,-10,-46,0
1550,-6,0,-4,-13,-16,-6,-5,-41,0
1555,-3,2,-5,0,3,3,-2,-18,0
1560,-2,-6,2,-11,-14,-3,-8,-62,0
1565,3,-5,1,13,10,17,8,48,0
1570,9,4,-2,9,4,-7,-5,-14,0
1575,10,2,0,21,20,8,3,37,0
1580,-4,-1,-3,5,9,0,-2,-26,0
1585,-8,1,-5,15,21,9,10,15,0
1590,-7,-2,-6,-23,-25,-14,-8,-22,0
1595,-1,-6,0,-2,-3,-4,-1,-24,0
1600,-5,-3,-2,-25,-24,-14,-2,-40,0
1605,4,-2,-1,29,27,21,11,51,0
1610,-5,0,-3,-14,-15,-11,-7,-39,0
1615,-1,-4,-1,-4,3,-3,0,-12,0
1620,-1,-2,-5,-27,-29,-16,-9,-32,0
1625,2,0,-3,11,13,3,1,7,0
1630,4,0,0,-18,-19,-9,-7,-16,0
1635,-1,3,0,-6,-11,-5,-9,-38,0
1640,4,0,-4,-2,0,0,-2,-19,0
1645,-4,-3,2,-8,-14,0,3,16,0
1650,-1,3,3,1,0,1,3,-24,0
1655,-5,-2,3,-2,-6,2,2,47,0
1660,-3,8,-5,7,14,2,3,-25,0
1665,-7,-3,-5,-10,-16,-7,-1,1,0
1670,2,4,3,5,-2,3,6,44,0
1675,-1,4,1,-14,-12,-14,-1,-27,0
1680,0,-1,-2,-3,-6,-9,-6,-2,0
1685,-2,-2,0,-29,-21,-22,-16,-82,0
1690,0,0,-3,37,36,23,11,23,0
1695,-1,2,-5,-16,-22,-13,-6,-19,0
1700,5,1,-1,-6,1,-5,-5,-19,0
1705,2,7,-1,-23,-29,-20,-16,-36,0
1710,1,0,0,7,13,0,1,25,0
1715,-2,4,0,-15,-7,-7,-8,-24,0
1720,0,-1,2,12,3,8,5,73,0
1725,0,-4,0,-6,-9,-9,-7,-26,0
1730,1,-5,-5,22,30,18,11,19,0
1735,-1,-6,1,2,2,1,-1,-21,0
1740,4,-3,1,16,16,13,3,21,0
1745,-2,-2,0,-17,-15,-14,-7,-75,0
1750,-2,-5,1,21,31,14,13,13,0
1755,1,-3,-3,-9,-14,-10,-9,-31,0
1760,5,-1,-2,7,3,-3,-3,-44,0
1765,2,2,-2,-16,-19,-18,-13,-72,0
1770,1,2,3,18,21,10,5,-1,0
1775,-1,7,0,-10,-15,-11,-5,-10,0
1780,-4,-2,-1,0,5,0,1,-27,0
1785,-2,-4,-2,11,10,8,4,11,0
1790,-7,-2,2,-29,-39,-23,-21,-100,0
1795,0,-1,-5,21,20,15,9,39,0
1800,-4,1,-1,9,8,12,6,34,0
1805,0,-3,-6,-4,-9,-4,-1,-33,0
1810,-4,-1,-4,-2,-4,-2,1,8,0
1815,-2,6,-1,-18,-24,-8,-5,-20,0
1820,3,2,-2,-15,-17,-15,-12,-30,0
1825,-4,-6,0,13,20,15,9,13,0
1830,1,-5,-3,-17,-18,-18,-16,-101,0
1835,3,-2,1,9,13,4,4,-34,0
1840,-1,-2,-5,-20,-22,-14,-8,-22,0
1845,-3,2,-2,-2,8,1,4,-39,0
1850,4,0,-3,0,-11,3,0,61,0
1855,2,-3,2,6,5,0,-2,100,0
1860,-6,3,-3,-23,-28,-15,-11,4,0
1865,-2,-1,2,13,10,10,10,54,0
1870,-5,0,3,-7,-13,-2,1,-13,0
1875,-5,-9,-7,2,7,7,1,-40,0
1880,-3,-8,1,5,8,5,6,-29,0
1885,2,-1,2,1,-4,0,-1,-13,0
1890,-4,-2,-3,-10,-7,-6,-7,-20,0
1895,-4,-1,2,-3,-2,-2,0,-39,0
1900,-7,1,-1,-3,0,-3,-2,-38,0
1905,-2,-2,-1,5,9,5,2,28,0
1910,-4,1,-3,-13,-13,-8,-10,4,0
1915,-6,-5,-5,7,2,3,0,0,0
1920,-3,-1,-2,9,10,1,4,-5,0
1925,4,-4,0,10,15,13,-2,40,0
1930,0,-5,-1,-6,-5,-1,-1,21,0
1935,-1,-3,1,-2,2,3,-1,-23,0
1940,-1,-3,3,1,6,0,-2,-9,0
1945,4,2,-2,1,-1,-2,-1,27,0
1950,2,3,2,-6,-2,-7,-4,5,0
1955,-2,-1,1,8,5,3,3,-6,0
1960,2,-6,-3,2,3,1,1,-12,0
1965,-1,0,4,2,2,0,0,14,0
1970,3,3,-2,-4,-1,2,-1,2,0
1975,-2,-4,-5,-1,2,-4,-5,-4,0
1980,2,-4,-3,2,2,3,-2,-6,0
1985,0,-3,-4,-6,-10,0,-2,2,0
1990,-1,3,2,-2,-6,-3,-4,4,0
1995,1,0,1,-5,-7,0,-6,-13,0
2000,-3,-1,0,-2,-9,-4,1,-11,0
2005,-5,-4,0,0,-3,1,5,1,0
2010,2,5,1,-2,-6,-1,-2,4,0
2015,-2,-4,-3,3,6,4,3,-5,0
2020,-2,-8,2,-5,-10,-3,-4,-6,0
2025,-2,3,-1,0,4,-1,1,16,0
2030,0,-2,2,-3,2,-2,2,10,0
2035,0,2,0,-4,-3,-1,-5,-4,0
2040,-4,2,-2,1,3,0,-6,-5,0
2045,1,-2,-2,-4,-1,-4,6,9,0
2050,-3,-3,-6,-4,3,0,-6,5,0
2055,0,-5,0,-2,-2,-1,-3,0,0
2060,-5,-6,-10,-2,1,2,-3,-7,0
2065,-3,2,-3,-1,-5,-5,-3,3,0
2070,0,-6,-3,-4,-2,-4,-4,2,0
2075,-6,-4,-4,-2,0,-1,-3,-10,0
2080,-3,-1,3,0,-1,3,-1,-6,0
2085,4,1,-1,0,-1,-1,-1,3,0
2090,-3,-4,-4,-2,-3,3,2,3,0
2095,-1,-1,0,-6,-5,-6,2,-7,0
2100,-3,-5,-3,-5,-5,-6,-5,-4,0
2105,0,3,5,0,-6,-2,-1,6,0
2110,2,5,1,-2,-4,-8,-3,2,0
2115,0,-2,0,-5,-9,-2,-2,-5,0
2120,2,1,3,-2,-3,-3,-7,-5,0
2125,-1,-3,0,4,3,2,4,2,0
2130,2,-3,-2,-3,3,2,-4,-1,0
2135,0,3,-2,-1,5,1,-7,-2,0
2140,-2,2,-1,3,6,-2,-1,3,0
2145,0,1,0,-3,-2,0,-7,0,0
2150,2,-2,1,-3,-1,0,0,4,0
2155,-3,-1,-3,8,5,1,0,-3,0
2160,2,-1,0,-1,-2,-4,3,-2,0
2165,-2,6,1,0,8,4,2,5,0
2170,-4,-2,-5,-3,0,0,-3,-2,0
2175,4,-4,-3,3,5,-7,-4,-5,0
2180,-2,-7,2,1,-1,5,2,-8,0
2185,-2,-3,-3,-2,-5,-3,-2,-5,0
2190,-1,2,1,1,4,-5,-2,2,0
2195,-4,3,1,-4,-9,-2,-9,-6,0
2200,-2,-1,-7,-6,3,0,0,-4,0
2205,0,-7,-2,2,2,-10,5,-1,0
2210,-2,0,-5,-4,0,0,1,0,0
2215,-4,-8,2,-2,-7,-4,-3,-6,0
2220,0,4,-4,-4,3,-8,-9,-2,0
2225,-4,-8,2,-5,-10,3,-1,3,0
2230,-3,0,1,-10,-11,-4,-1,-5,0
2235,-4,-6,-2,-4,-3,-9,7,-4,0
2240,-1,8,-3,-7,-6,3,-1,-4,0
2245,-1,0,-1,2,3,-2,-3,6,0
2250,-1,-5,-2,1,-7,-3,-4,6,0
2255,2,6,-2,-7,-2,7,-2,-10,0
2260,-8,0,0,5,0,-3,6,2,0
2265,-1,-4,-5,-2,-3,4,0,6,0
2270,3,1,6,3,0,1,1,5,0
2275,-6,-6,-2,-6,5,-5,-11,-4,0
2280,1,-8,4,-3,-10,-3,2,-4,0
2285,-5,10,-2,0,0,-6,-4,-4,0
2290,-4,-1,-8,-4,1,-3,1,-2,0
2295,-7,-7,-4,-7,-9,-3,-3,-7,0
2300,-1,-3,0,4,-5,3,2,-4,0
2305,0,4,-2,6,4,6,0,4,0
2310,-4,-1,3,5,-2,2,2,3,0
2315,-3,-3,-3,5,9,5,3,0,0
2320,-4,-8,-5,-4,-2,0,-3,0,0
2325,0,-3,-4,-6,-1,-8,-4,1,0
2330,-6,-3,-4,-1,1,-4,2,-2,0
2335,-1,9,-9,-4,-3,-2,-4,-2,0
2340,3,-2,-3,4,6,-6,0,-5,0
2345,-1,-1,-1,-5,2,1,3,-2,0
2350,-4,-5,2,-1,-1,-3,0,3,0
2355,1,-5,5,-2,-5,-1,-6,-4,0
2360,4,-4,3,-3,-7,-3,-7,-2,0
2365,3,4,1,-9,-15,-8,0,-3,0
2370,-1,-1,-5,-3,-1,5,2,-3,0
2375,-1,-2,-2,1,-1,-1,3,0,0
2380,-6,2,-8,-2,-1,0,-3,-2,0
2385,-1,0,1,2,0,3,4,2,0
2390,2,0,0,3,0,-3,-4,-4,0
2395,2,-4,-4,-5,-4,-6,-5,-2,0
2400,0,-1,-3,-3,-1,0,-8,-1,0
2405,-3,-4,-4,-5,-4,1,-1,-2,0
2410,1,-1,-3,1,3,2,-4,1,0
2415,-6,0,-3,4,3,-1,1,-2,0
2420,-1,0,3,0,1,-2,6,-2,0
2425,1,-4,-2,-1,-5,3,-2,-1,0
2430,3,0,4,1,-11,2,-1,-2,0
2435,3,-3,3,0,5,0,3,-3,0
2440,-2,-2,-3,-6,-3,1,-3,1,0
2445,-4,-3,2,2,0,-1,-2,0,0
2450,2,-3,-4,-6,7,-2,-4,-3,0
2455,-1,-1,-3,-1,5,-1,5,-4,0
2460,0,1,1,-4,-1,-6,-5,2,0
2465,0,-1,2,-2,1,-7,3,-2,0
2470,-3,3,0,2,1,3,4,-1,0
2475,-5,0,1,0,-4,-1,-3,1,0
2480,-4,3,-2,1,-5,-8,0,-5,0
2485,-1,-2,-8,0,2,-2,0,-3,0
2490,3,2,-4,-1,-3,-4,-3,0,0
2495,-6,-11,-2,-8,4,-8,-6,-4,0
2500,-1,-4,3,-4,-2,2,-1,-2,0
2505,-1,-9,-2,6,6,0,2,0,0
2510,8,6,-6,-4,-5,-6,-4,-4,0
2515,2,3,-4,-12,-7,1,-6,-4,0
2520,0,-4,1,2,-7,-7,-3,-1,0
2525,-4,1,3,2,-2,-1,6,-3,0
2530,-9,-5,0,-4,2,-3,-3,-1,0
2535,-1,-10,-4,1,-7,-1,-3,0,0
2540,0,4,-7,-3,3,0,0,-1,0
2545,-2,0,-5,0,1,3,-8,-2,0
2550,-3,-3,0,-2,-3,2,-2,3,0
2555,-3,2,2,4,1,-1,4,2,0
2560,-2,0,0,4,5,3,0,3,0
2565,3,7,-5,-2,-2,0,3,3,0
2570,-2,-6,2,-4,-5,-1,0,-7,0
2575,0,1,-2,-4,-4,1,-3,-2,0
2580,7,-3,-2,-2,4,-1,-1,-5,0
2585,1,-6,-6,-4,1,-7,0,-3,0
2590,0,-2,-1,-4,1,-4,1,-3,0
2595,-2,4,-3,5,7,6,1,-1,0
2600,-2,4,0,1,0,1,7,-2,0
2605,2,0,-4,-3,-5,-1,1,3,0
2610,-9,-11,-3,0,-3,0,4,-3,0
2615,-5,-2,5,-2,-13,1,4,-1,0
2620,-2,-2,-4,1,-3,-3,2,3,0
2625,-3,3,1,-3,-3,-5,-3,3,0
2630,-1,6,-2,6,4,-1,-2,3,0
2635,5,2,1,4,7,4,-6,-2,0
2640,6,-2,-3,-7,-1,4,-1,1,0
2645,-1,0,-2,-4,-2,-4,-5,-3,0
2650,-6,0,0,-4,-7,-7,-6,-2,0
2655,-3,4,-1,-3,0,-5,-3,-1,0
2660,0,4,-3,-3,-6,7,-10,1,0
2665,1,-4,0,2,3,7,-2,0,0
2670,2,2,4,0,-4,-16,0,-6,0
2675,-6,-9,-2,-7,-13,-10,0,-1,0
2680,-1,-12,3,-4,-9,-10,2,-3,0
2685,-2,9,1,-2,-7,3,-5,-6,0
2690,-6,-3,-2,5,2,10,3,2,0
2695,-2,-2,-2,-2,-7,-7,0,-4,0
2700,-7,-6,-2,-6,-2,-5,-2,-2,0
2705,-1,0,0,-4,1,-3,-6,-3,0
2710,0,0,-1,-3,0,1,3,-5,0
2715,4,0,0,3,5,2,5,2,0
2720,3,0,3,-1,-3,4,-2,3,0
2725,-3,-6,-2,-7,-1,3,0,-1,0
2730,4,-3,-4,-8,-4,3,4,-1,0
2735,4,0,0,-1,2,7,-3,-3,0
2740,0,0,-1,4,5,-3,0,-5,0
2745,-1,-2,1,-1,-2,-9,-2,2,0
2750,2,1,-1,5,2,-2,-1,-3,0
2755,-6,0,-4,-2,-4,0,-3,1,0
2760,-1,0,-3,0,1,-7,-4,2,0
2765,4,-2,-2,3,3,-1,0,-8,0
2770,-2,-5,0,-2,-2,5,-8,-1,0
2775,-1,-3,-3,-2,-4,2,-3,2,0
2780,-4,3,-1,1,-2,-4,0,-5,0
2785,-4,-7,0,-6,-7,-6,-2,1,0
2790,3,4,-1,3,3,-9,-4,3,0
2795,3,1,0,6,3,0,0,3,0
2800,-2,7,-1,-3,-8,-2,-3,-2,0
2805,-1,-2,0,-4,-2,-3,-3,-1,0
2810,-7,-9,-2,1,2,-7,-6,2,0
2815,3,-2,-3,-3,-7,-1,-3,-1,0
2820,-1,0,2,0,7,0,-3,1,0
2825,0,-1,-2,-4,-2,2,-1,-4,0
2830,-4,-7,0,-5,0,-2,-4,0,0
2835,0,-3,2,-5,4,1,1,-2,0
2840,3,1,-4,1,1,-1,0,0,0
2845,-3,0,3,-4,-4,-5,-4,-2,0
2850,1,2,-3,2,7,-1,-1,-2,0
2855,-6,-3,0,-4,-1,-4,5,1,0
2860,0,-2,-1,-2,-7,-1,-1,1,0
2865,3,-2,0,8,6,5,4,-2,0
2870,3,5,0,3,1,3,1,-3,0
2875,6,0,0,4,-1,-4,-1,-6,0
2880,-7,-2,-2,-5,-3,-4,2,0,0
2885,-1,1,-4,-1,0,-4,-2,0,0
2890,-8,-1,-4,-5,0,3,1,-2,0
2895,-4,-1,-2,-4,0,-1,-2,-3,0
2900,-5,1,0,-1,-9,0,2,2,0
2905,-2,-5,-2,1,0,-1,0,-2,0
2910,-1,2,-4,1,-5,-2,-2,-2,0
2915,-5,2,0,1,-2,1,-3,3,0
2920,4,-2,-5,1,2,3,0,-1,0
2925,-3,5,-4,-3,-4,3,0,-3,0
2930,0,3,0,-1,0,1,3,3,0
2935,2,-1,-1,-1,3,0,-3,-5,0
2940,4,-3,-2,-11,-3,-1,-5,1,0
2945,-2,-4,-4,-2,0,-5,-4,3,0
2950,-3,-3,-1,-7,-7,-2,-6,-1,0
2955,-4,0,-4,-2,-8,-6,-1,0,0
2960,-4,0,1,-2,-4,-3,3,-5,0
2965,-5,-6,-1,1,-8,-6,-6,2,0
2970,-3,-2,0,-2,-9,-2,-4,-2,0
2975,-4,-2,-5,-5,-7,0,-2,2,0
2980,-1,-5,-2,2,8,3,4,-1,0
2985,1,-1,-1,-4,0,0,0,3,0
2990,2,-2,-1,0,3,2,-2,-1,0
2995,3,2,2,-2,0,2,0,-2,0
3000,4,-3,-4,-4,-4,-6,3,1,0
3005,-1,-2,-4,-5,-2,3,-1,-3,0
3010,-1,-2,3,-5,-5,-5,-6,-3,0
3015,2,3,-2,-2,-2,-4,-4,-4,0
3020,-5,-3,0,1,-1,3,1,2,0
3025,1,-4,-2,0,-2,0,-4,1,0
3030,-1,1,-3,0,4,-3,-3,-4,0
3035,-2,-2,0,2,-1,0,-2,1,0
3040,1,3,-2,-2,2,0,-2,-4,0
3045,-2,-4,3,-3,-2,-5,1,0,0
3050,-2,1,-5,-2,3,4,2,-1,0
3055,-1,-4,-5,0,1,-5,-1,-2,0
3060,-5,3,0,-4,-14,-4,-2,1,0
3065,-1,8,3,-2,-5,1,4,0,0
3070,1,-10,1,0,3,4,-5,-2,0
3075,-1,2,0,-1,8,-2,2,-4,0
3080,2,-1,1,-2,0,3,-6,-1,0
3085,4,1,-3,-1,0,0,-2,-3,0
3090,3,-1,0,4,-6,-2,2,1,0
3095,-2,-2,0,2,0,0,-2,4,0
3100,1,-2,-2,-5,6,-2,-1,-3,0
3105,2,0,-4,-1,-6,-1,-4,-2,0
3110,-4,-4,-8,-7,-2,-3,-2,-1,0
3115,-1,-3,-2,-5,-7,0,3,-2,0
3120,3,0,-3,-1,-2,-1,2,3,0
3125,-3,7,1,-4,-7,-5,0,-5,0
3130,-1,-4,-1,1,3,1,-3,-2,0
3135,3,-2,-2,3,5,-2,-1,-1,0
3140,3,-3,1,1,0,-1,-2,-2,0
3145,3,-4,-1,-3,-3,2,2,2,0
3150,-5,3,-1,-2,0,1,-4,-2,0
3155,-1,0,-2,-6,-8,-1,0,1,0
3160,1,-4,-5,0,4,-1,-3,2,0
3165,3,0,-2,-2,-6,-6,-2,-7,0
3170,2,-1,1,2,-3,0,-1,-5,0
3175,-1,-1,-3,-3,-3,0,-1,-5,0
3180,-2,-1,2,1,0,-2,-1,0,0
3185,-8,-1,-1,-1,4,0,-1,3,0
3190,2,-2,-1,-2,0,-4,0,-3,0
3195,-1,-7,-4,-2,3,1,0,1,0
3200,-2,-2,-4,1,-4,0,-1,2,0
3205,2,-1,-3,-2,0,-5,-1,-1,0
3210,-2,2,0,0,-2,-4,-1,-2,0
3215,2,-3,0,4,0,1,-3,0,0
3220,2,3,-2,1,0,-3,1,-7,0
3225,-2,-6,-2,3,8,6,0,0,0
3230,-5,0,2,4,7,1,-1,2,0
3235,1,-3,2,-4,-5,-4,-4,-1,0
3240,-3,3,1,-3,-11,-3,-2,-2,0
3245,0,2,3,-3,-6,-1,-2,2,0
3250,0,3,0,-4,-10,-5,-3,-2,0
3255,-3,4,2,-3,2,-1,0,-5,0
3260,1,-2,-3,1,-1,0,1,-1,0
3265,-1,-1,0,2,2,-5,0,2,0
3270,-7,2,-2,-6,-4,3,7,-4,0
3275,-3,-3,0,-4,-5,-3,-1,-7,0
3280,-4,-2,1,-2,-1,0,-1,1,0
3285,-2,-2,1,1,2,0,0,-4,0
3290,0,-4,2,2,-5,1,-5,-2,0
3295,1,1,-2,-2,2,-4,-1,2,0
3300,-1,-7,-1,-4,3,1,-1,-1,0
3305,0,-2,4,-2,-6,-2,-5,-5,0
3310,1,3,0,1,0,2,1,0,0
3315,-3,-2,-2,6,0,1,-3,2,0
3320,-3,-3,-4,-3,-5,-4,-1,-1,0
3325,-1,0,0,-1,-4,-1,-2,0,0
3330,-4,-5,0,-2,2,-3,1,-3,0
3335,-2,1,0,-1,1,0,4,1,0
3340,-1,3,0,-6,-3,-5,-3,-2,0
3345,0,-3,-9,-4,2,1,-2,0,0
3350,3,-3,-3,-2,2,-1,1,-7,0
3355,-4,-1,-2,2,0,2,3,-2,0
3360,-3,2,-1,-1,-6,-3,0,-6,0
3365,-2,-1,-1,-2,-9,1,1,-4,0
3370,-2,-10,-8,-7,-2,-4,-5,3,0
3375,-1,-3,-2,-4,-5,-1,-2,0,0
3380,2,-1,-3,1,0,-1,-2,0,0
3385,-3,-3,0,-3,5,-5,2,0,0
3390,-1,-7,-1,2,2,2,0,-1,0
3395,0,-2,-1,0,3,-1,0,-4,0
3400,-1,-4,3,1,0,0,-1,2,0
3405,-2,1,-1,-4,-2,3,-5,-4,0
3410,-1,-4,-6,-2,-8,-5,-6,2,0
3415,-1,-3,1,-3,-6,-3,-3,-1,0
3420,2,1,-2,-2,1,-2,0,-2,0
3425,-2,-1,-2,0,-3,3,-4,3,0
3430,3,2,4,3,6,2,-2,4,0
3435,-3,-3,-2,-2,-3,1,-3,0,0
3440,2,-2,4,-2,-4,-2,1,3,0
3445,-4,-2,-6,-2,1,-3,-1,-1,0
3450,-6,-2,4,3,-2,0,-4,-5,0
3455,5,-3,-1,-1,-1,-1,-1,-2,0
3460,-3,1,1,-7,-6,-3,0,-1,0
3465,-1,3,-2,-2,1,2,2,-4,0
3470,-2,1,-2,-2,-3,-2,0,-5,0
3475,0,1,-1,0,1,-4,2,2,0
3480,0,0,-2,3,-1,2,4,1,0
3485,-3,-1,-2,0,4,-1,-3,-1,0
3490,0,-5,0,-2,3,-3,-3,-1,0
3495,-2,-5,-4,-6,-5,-2,-2,1,0
3500,0,-2,1,-9,-4,-4,-3,1,0
3505,-2,-7,0,-3,0,-2,4,2,0
3510,-2,-3,-5,-3,-5,3,4,-4,0
3515,-4,-1,-1,4,1,0,2,0,0
3520,0,-5,2,-3,-1,3,2,-1,0
3525,2,1,-1,-2,-1,-1,-1,1,0
3530,1,-2,-6,-3,0,2,-4,1,0
3535,-3,3,-4,4,5,1,1,0,0
3540,-3,-2,-1,3,-1,1,2,-4,0
3545,0,-2,-2,0,-1,-4,10,-14,0
3550,-1,3,3,1,-2,0,-6,7,0
3555,3,7,-1,1,-1,0,-3,2,0
3560,2,-1,-4,2,1,-2,-2,5,0
3565,-2,-1,3,-1,-7,-1,-8,2,0
3570,-4,-2,-6,1,-5,-4,4,-2,0
3575,-2,-6,-1,-5,-7,-9,0,-3,0
3580,-4,6,-1,-2,-1,-2,0,-4,0
3585,-1,-4,1,4,3,6,-14,4,0
3590,2,2,0,-6,-3,3,-2,-1,0
3595,-2,2,5,-4,-2,0,-2,7,0
3600,-3,-4,-1,-3,1,-5,-4,-5,0
3605,-5,-7,-3,1,3,0,3,-4,0
3610,-5,-1,2,-2,-5,-4,4,-2,0
3615,6,-1,-3,-2,3,-1,44,-16,0
3620,-1,5,-8,-3,2,-10,-8,9,0
3625,2,-7,-5,-3,-8,-2,-12,6,0
3630,3,1,2,5,14,6,-16,5,0
3635,0,2,2,3,-3,-2,-13,7,0
3640,0,0,-6,-7,0,3,-5,-3,0
3645,-6,-10,-3,-1,4,-4,-3,2,0
3650,-3,2,-4,-9,-7,-11,5,-3,0
3655,-2,-2,-6,-5,0,0,-11,3,0
3660,-1,-6,6,2,-3,6,0,0,0
3665,7,-2,1,3,-1,-3,-7,-3,0
3670,0,-7,-7,2,-1,-3,1,-4,0
3675,-3,-5,1,2,4,-1,-6,2,0
3680,-4,-8,-2,-3,-6,-1,-2,-3,0
3685,-8,-1,-5,-10,-11,-6,-1,-3,0
3690,-5,-4,1,0,-2,-5,-1,5,0
3695,-10,0,-4,-6,-7,0,-11,1,0
3700,-4,7,3,0,1,0,-4,-1,0
3705,6,-10,2,1,-2,-3,-5,-5,0
3710,6,-2,4,-2,-5,-5,-2,-5,0
3715,16,-12,6,4,-5,-9,-5,-1,0
3720,1,19,-4,8,5,-2,1,-5,0
3725,0,13,-3,8,2,2,0,-3,0
3730,-8,-11,6,-3,4,-2,0,-7,0
3735,-8,-11,5,-11,0,-1,3,-6,0
3740,3,-17,0,-6,-6,-15,8,-9,0
3745,-16,21,-5,-4,4,4,6,2,0
3750,2,19,-3,-7,0,24,2,-7,0
3755,15,7,-2,-3,4,13,-1,-2,0
3760,19,1,-2,-4,4,12,1,0,0
3765,12,-6,-2,-11,-3,-1,2,-3,0
3770,7,-4,-6,-1,1,-5,7,0,0
3775,-7,25,-3,-3,-12,11,2,0,0
3780,-7,8,-8,-2,-11,16,-1,-1,0
3785,-2,7,-3,7,-3,4,2,-1,0
3790,-12,-5,-3,-2,-7,-11,-5,7,0
3795,-3,-18,-1,-1,-6,-26,2,-4,0
3800,-4,-4,4,-1,-2,-17,-1,2,0
3805,2,-6,8,4,6,1,-6,-1,0
3810,3,-4,-2,7,12,3,-5,3,0
3815,0,3,-7,-1,4,-2,-7,5,0
3820,-7,-11,-6,-1,3,-6,-2,5,0
3825,-8,-13,-9,-4,-4,-16,-4,3,0
3830,-3,-15,1,2,0,-7,-1,0,0
3835,0,-3,-1,-1,3,-8,-1,-1,0
3840,-1,-11,0,-1,3,-5,-2,-1,0
3845,4,0,0,-4,3,4,-1,-5,0
3850,-5,5,1,4,-5,6,1,-4,0
3855,-1,14,-2,2,-3,11,1,-2,0
3860,-3,-1,-1,-5,-6,4,1,-3,0
3865,-2,-5,-2,-3,-1,2,1,-5,0
3870,5,6,0,-3,2,-4,0,-3,0
3875,0,6,-4,2,-1,9,-3,1,0
3880,-1,-1,-4,-1,-4,0,5,-1,0
3885,-9,-4,-1,-4,8,4,1,4,0
3890,-3,-1,0,-1,-5,-1,2,-4,0
3895,-4,0,0,-2,1,-4,-6,1,0
3900,2,-3,1,0,-2,-11,-3,-1,0
3905,1,-8,2,-3,-12,-7,-6,1,0
3910,3,3,-2,-6,-5,-4,1,2,0
3915,1,-1,3,0,-2,1,1,3,0
3920,-7,10,-2,4,-2,3,-1,-3,0
3925,-6,13,2,-6,-6,0,0,-2,0
3930,2,4,-4,1,-1,1,-2,2,0
3935,5,-6,0,0,-6,-3,-3,3,0
3940,1,-12,-6,-1,-2,0,-1,14,0
3945,8,-10,1,1,1,-5,4,5,0
3950,-1,-5,0,-3,-4,-6,-2,-3,0
3955,-7,-9,-5,-3,1,-3,-1,-4,0
3960,-6,5,0,-3,3,3,-5,-3,0
3965,0,8,3,0,-2,-5,-7,-6,0
3970,0,3,-1,1,0,2,-1,-4,0
3975,-1,1,-2,-4,-7,3,-1,-6,0
3980,-6,-12,3,-5,0,-6,0,-8,0
3985,-3,-7,-2,-1,-1,1,-3,-5,0
3990,6,-5,-5,-1,2,2,-4,-1,0
3995,-1,8,-8,-6,-7,-2,0,-1,0
4000,4,15,-3,-1,-3,2,-4,7,0
4005,-5,3,-5,-1,0,5,0,16,0
4010,-4,2,1,-1,-2,1,2,7,0
4015,-1,-3,-2,-3,6,3,3,1,0
4020,-4,5,-1,-3,-7,-2,-4,-5,0
4025,2,-3,-4,-2,-6,-4,-3,-10,0
4030,-2,-6,0,-8,-10,-6,-4,-4,0
4035,0,-5,2,0,-3,-5,-2,-2,0
4040,2,-5,-1,3,1,-4,-3,-2,0
4045,-10,2,-7,3,0,2,3,-3,0
4050,-3,4,-2,1,6,-1,3,-3,0
4055,0,0,2,0,0,0,1,-4,0
4060,-4,-2,-5,-2,4,3,-1,-18,0
4065,3,-1,-4,-2,-3,5,-1,-8,0
4070,-4,-3,0,3,-1,1,2,-1,0
4075,-6,0,2,-3,-5,0,0,4,0
4080,2,-2,1,0,-3,0,1,14,0
4085,-7,-4,-4,3,3,-2,0,9,0
4090,-1,2,1,-3,-1,1,0,5,0
4095,2,1,2,0,-1,-5,0,6,0
4100,-3,-1,1,-5,-7,1,-4,0,0
4105,3,-4,0,-3,-3,-1,2,-14,0
4110,3,-2,-4,-6,-1,-2,-1,-15,0
4115,-2,-3,-7,-3,-4,-3,-2,-9,0
4120,-1,-4,-1,-2,2,-1,-2,0,0
4125,2,-8,1,-4,-4,-5,-7,1,0
4130,-7,-4,1,3,-5,0,-2,-1,0
4135,0,1,2,-1,-2,-4,4,3,0
4140,0,4,0,1,-2,-1,-3,8,0
4145,-4,-1,0,3,3,-2,-2,5,0
4150,4,3,-3,-2,0,2,1,1,0
4155,3,1,4,1,2,-2,-2,-1,0
4160,11,-1,-3,-4,2,-1,-2,-9,0
4165,6,-6,1,0,6,0,-1,-6,0
4170,-5,0,-1,-4,-9,-2,0,-10,0
4175,-3,-4,-4,4,-3,-3,2,-2,0
4180,5,-10,-1,3,-2,3,1,-3,0
4185,1,-1,0,2,3,2,-2,-14,0
4190,3,6,-3,-3,3,4,0,0,0
4195,0,1,-2,-1,3,-1,-1,-6,0
4200,1,7,-1,-4,-1,1,0,0,0
4205,3,3,-2,-1,4,2,-2,5,0
4210,-3,0,-1,0,0,0,0,-6,0
4215,11,-6,-1,2,6,2,-1,0,0
4220,7,-4,-2,-7,-4,-5,-6,8,0
4225,66,-20,-8,-3,-1,-9,-1,-58,0
4230,-94,5,3,2,8,1,2,28,0
4235,-49,-4,4,0,-1,-4,2,10,0
4240,-28,-1,-4,-4,7,4,3,58,0
4245,-38,9,-1,-1,5,12,4,51,0
4250,-40,17,4,5,-3,2,-6,-10,0
4255,-18,-25,2,4,3,1,-5,6,0
4260,93,-18,-1,-11,-3,-12,3,-1,0
4265,-18,30,7,7,-9,1,-2,43,0
4270,-62,1,1,14,-1,11,0,30,0
4275,-27,41,-1,-5,-13,2,0,23,0
4280,26,-2,-1,-5,-5,-10,-1,35,0
4285,72,-20,-3,-7,0,-5,-2,-54,0
4290,34,4,-4,-8,5,-8,3,-97,0
4295,-10,-7,-2,8,7,3,-6,-55,0
4300,-3,-6,-3,2,-5,10,0,4,0
4305,-54,-8,-2,-17,-13,-7,2,27,0
4310,-64,-31,1,-4,-3,-14,-1,-27,0
4315,-37,-19,-1,1,-5,-14,-1,-41,0
4320,9,-4,-6,11,2,-6,-8,-19,0
4325,-54,-3,-1,6,4,-5,-2,9,0
4330,-46,-11,-2,-12,-4,-8,-5,-3,0
4335,-18,10,0,-10,-6,-3,2,17,0
4340,32,97,-21,12,-3,13,0,10,0
4345,72,-36,24,49,-6,-4,-3,-6,0
4350,22,-38,21,-11,21,0,2,-18,0
4355,6,14,19,-18,-16,-9,8,-36,0
4360,-5,0,-6,-16,29,-27,-4,-42,0
4365,-56,3,-13,-36,17,21,2,-15,0
4370,64,-6,-26,-10,7,15,-17,43,0
4375,97,-75,-9,16,-19,46,-11,52,0
4380,83,-126,10,-6,-30,20,-2,16,0
4385,22,-8,3,15,-40,-20,6,-1,0
4390,-57,16,4,4,-10,-21,7,-13,0
4395,-65,62,-11,-17,4,-21,2,12,0
4400,17,43,-2,-6,8,0,1,-17,0
4405,-6,33,-12,-8,19,-4,-7,11,0
4410,-33,55,-8,6,0,-1,2,8,0
4415,-28,26,2,1,9,-11,-7,0,0
4420,-59,-4,5,2,-1,-3,-2,7,0
4425,-49,-5,-2,-17,-3,-2,-5,-1,0
4430,-32,15,5,10,-16,1,-1,-12,0
4435,-106,29,-6,11,1,-2,-5,-6,0
4440,-128,87,0,6,-3,-3,2,4,0
4445,80,-22,-22,-15,-4,0,-2,112,0
4450,127,-105,-10,16,-8,5,-5,127,0
4455,127,-128,-12,7,7,10,1,127,0
4460,102,-128,4,-8,-1,2,4,116,0
4465,82,-110,7,-10,18,-14,-2,86,0
4470,-58,52,33,1,9,-5,-5,-22,0
4475,-80,96,-2,-3,20,-9,-5,-103,0
4480,-128,109,-27,36,1,28,4,-80,0
4485,-128,60,-5,24,-14,4,-1,-35,0
4490,-6,-103,3,-15,-16,-19,13,18,0
4495,40,8,5,-9,11,-37,10,53,0
4500,71,59,-11,-5,17,-21,-6,-10,0
4505,71,36,-9,11,15,17,0,-32,0
4510,-30,26,-16,-5,3,23,-5,-76,0
4515,-57,22,3,-29,-5,28,0,-61,0
4520,83,-52,19,-13,-7,14,-3,-42,0
4525,6,8,11,2,-2,17,-1,-43,0
4530,-40,19,10,7,-14,10,4,-60,0
4535,-9,-19,5,3,-13,-5,8,-57,0
4540,-23,-25,5,-17,-15,-14,3,-1,0
4545,3,-8,1,-5,-6,-18,3,-21,0
4550,-35,10,-13,-3,-1,-10,-1,-57,0
4555,40,-26,0,15,7,-8,-6,44,0
4560,21,-38,3,-10,-2,-12,-10,-36,0
4565,-119,5,6,-6,-3,-8,-9,36,0
4570,-59,-9,-6,-9,-5,-15,-12,127,0
4575,-74,-22,-4,9,-3,-3,-6,73,0
4580,13,-16,1,17,2,-4,-9,-47,0
4585,-108,-2,-6,-11,-1,-4,-1,74,0
4590,-53,7,-4,-5,1,0,0,17,0
4595,-57,-5,-6,0,-3,2,-12,99,0
4600,-97,4,-1,-8,1,-3,2,68,0
4605,-27,11,-4,-9,-1,0,3,-75,0
4610,55,16,-5,8,-3,9,6,-51,0
4615,33,4,0,-4,-3,3,-1,-10,0
4620,7,-9,11,11,7,7,10,-95,0
4625,-25,11,10,9,3,2,-5,-9,0
4630,25,5,4,-10,-3,-4,0,99,0
4635,39,-1,2,-6,-7,1,0,23,0
4640,-59,-4,1,-3,2,1,5,5,0
4645,36,0,5,-4,-5,4,-1,105,0
4650,31,8,-4,4,2,4,6,18,0
4655,-2,0,-10,-7,-4,-8,-8,12,0
4660,1,-14,-5,1,-3,-4,-5,127,0
4665,-43,6,-3,6,1,-6,-8,-36,0
4670,-11,4,-6,-10,4,-9,-9,-52,0
4675,-24,-5,-4,-5,-2,-2,3,-98,0
4680,-41,-3,-6,-12,-6,-8,-5,0,0
4685,1,-9,0,1,6,2,3,-62,0
4690,-24,-5,-2,13,11,6,1,-87,0
4695,-71,0,-2,-8,0,2,-8,91,0
4700,-93,-2,1,-6,1,0,-8,59,0
4705,9,-2,-4,-4,-3,1,3,5,0
4710,-95,7,-2,-6,-6,-8,-7,127,0
4715,-108,-3,0,-2,-5,-2,-2,91,0
4720,-33,-10,-5,-22,-8,-8,-3,100,0
4725,-82,-15,-8,-26,-6,-10,-2,127,0
4730,-65,-5,0,-13,-5,3,-1,58,0
4735,-63,2,0,-1,0,3,2,-2,0
4740,68,-5,-1,-2,1,2,2,-24,0
4745,126,-13,-5,0,-2,0,6,-97,0
4750,-22,-1,-5,0,-6,-7,-2,-24,0
4755,-29,-2,3,0,1,-3,4,13,0
4760,-128,0,0,-13,-9,-9,-10,112,0
4765,-100,-6,-3,-22,-6,-5,0,86,0
4770,-62,3,-2,-8,-3,-1,-2,38,0
4775,127,-14,-6,1,3,5,8,-95,0
4780,109,-5,2,10,-2,8,11,-128,0
4785,100,-5,2,10,1,9,11,-103,0
4790,127,-15,-2,0,-5,7,12,-89,0
4795,-101,-2,-1,-11,-4,-10,-5,125,0
4800,-109,-9,-8,-23,-6,-13,-4,111,0
4805,-90,-9,-7,-27,-2,-13,-7,127,0
4810,-41,-12,-9,-31,-7,-4,-1,127,0
4815,127,-17,-12,-14,-2,0,6,-7,0
4820,78,-8,2,14,4,8,3,-105,0
4825,125,1,-2,21,2,8,3,-120,0
4830,127,-4,4,22,9,4,8,-128,0
4835,118,-1,3,16,6,0,4,-114,0
4840,24,7,5,12,-2,0,3,16,0
4845,-120,12,3,2,8,-7,-12,111,0
4850,-96,7,-2,-11,-5,-11,-7,127,0
4855,-34,-10,-6,-27,-7,-1,-1,127,0
4860,108,-5,-5,-3,-1,3,6,-64,0
4865,127,-3,2,11,-5,8,8,-124,0
4870,127,7,10,26,4,6,1,-109,0
4875,-50,8,6,7,-6,-2,-6,40,0
4880,-17,4,4,-2,-5,-9,-7,69,0
4885,95,-9,-5,-4,-5,2,2,-61,0
4890,-44,4,4,7,1,-5,-4,-11,0
4895,127,0,1,13,-5,1,8,-105,0
4900,-6,0,-2,-1,-5,-4,-1,47,0
4905,-93,-6,-1,-15,-5,-11,1,109,0
4910,-38,-7,2,-1,3,2,-2,-98,0
4915,89,-4,-2,1,-3,3,6,-128,0
4920,59,-13,-5,-6,1,3,2,-54,0
4925,-21,-1,5,3,-1,5,3,-39,0
4930,-45,-3,-4,-7,-9,1,-4,42,0
4935,19,-8,-9,-10,-6,-7,-1,58,0
4940,95,-6,-3,-3,-8,-3,1,-3,0
4945,-57,0,1,0,-3,5,0,42,0
4950,-63,-3,4,-2,1,1,4,48,0
4955,8,0,5,-1,-5,5,1,14,0
4960,92,-1,3,-1,8,1,2,-18,0
4965,-49,-2,1,3,7,3,-1,-7,0
4970,21,-12,-10,-6,-4,-2,-25,4,0
4975,70,-4,-1,-4,-6,2,-1,-10,0
4980,77,2,1,-4,-1,-10,1,12,0
4985,-65,18,0,13,-3,15,6,40,0
4990,-56,3,1,7,5,8,12,23,0
4995,29,32,-6,10,2,-12,6,-3,0
5000,40,-87,-15,-23,-5,14,13,-2,0
5005,106,74,6,-1,-19,-38,-25,-64,0
5010,-25,28,-4,45,6,-8,-1,2,0
5015,-128,53,6,-25,22,34,72,26,0
5020,-7,-13,6,-52,8,15,-8,0,0
5025,127,4,0,-40,-5,-22,-52,-11,0
5030,127,-14,-7,84,-13,5,-10,12,0
5035,51,-68,-3,35,42,-36,-24,-16,0
5040,-76,15,3,-39,-10,-29,5,-1,0
5045,12,-40,3,-62,-17,-28,-5,-2,0
5050,49,9,3,-40,3,5,-23,-27,0
5055,-29,13,4,32,2,43,-10,12,0
5060,-96,-20,2,42,12,50,17,-4,0
5065,-39,-50,-3,-17,-6,43,-4,37,0
5070,7,33,-21,-56,-14,-26,-15,3,0
5075,-19,-30,-10,-47,-35,-7,10,-5,0
5080,-45,4,26,23,-10,-61,43,-14,0
5085,-13,0,7,65,6,-68,83,-10,0
5090,28,-37,8,36,13,-9,46,2,0
5095,1,4,-6,19,-21,-16,-11,11,0
5100,-28,45,-14,-17,-21,-10,-20,-5,0
5105,0,-21,-5,-33,-4,-9,-37,-5,0
5110,37,-6,-5,-15,1,14,-54,3,0
5115,14,23,9,-9,-7,14,-1,-11,0
5120,-5,19,2,4,5,19,-23,22,0
5125,-15,3,7,5,21,35,2,-1,0
5130,13,-4,5,-14,1,1,1,-2,0
5135,-13,-12,-6,8,-6,7,1,-4,0
5140,-19,-1,-8,-2,-1,44,-3,2,0
5145,-6,-6,-9,0,9,17,-7,-4,0
5150,12,1,2,-19,-3,-23,5,-8,0
5155,14,-9,1,1,-1,0,-25,11,0
5160,-14,12,-15,22,9,5,13,8,0
5165,-3,-3,-6,18,1,-24,7,1,0
5170,13,-21,6,2,-4,-52,7,5,0
5175,-4,6,4,-18,-1,-18,1,6,0
5180,-11,13,-2,-5,6,15,-9,0,0
5185,-7,18,0,10,3,-43,11,-8,0
5190,35,20,16,2,9,-107,58,32,0
5195,-20,-21,-14,-17,-3,5,7,-10,0
5200,-29,-5,-9,8,-15,82,1,-17,0
5205,0,2,0,8,-4,-81,33,-3,0
5210,2,-10,-11,-23,1,-28,81,-4,0
5215,-2,-4,-5,-10,-3,54,115,5,0
5220,-4,6,-2,0,-1,73,125,-12,0
5225,-5,2,-3,4,-4,69,36,-6,0
5230,9,21,4,-9,5,0,-107,-1,0
5235,5,9,-3,6,-7,42,-128,7,0
5240,19,26,23,46,24,56,-128,21,0
5245,-19,-20,-12,-5,4,-86,-115,-22,0
5250,-7,-25,4,-13,-2,-17,-49,-21,0
5255,-14,-28,2,-12,-1,-67,86,-15,0
5260,-14,-9,2,2,7,-52,105,-19,0
5265,17,8,1,6,11,71,-72,15,0
5270,4,-3,5,0,4,93,-102,0,0
5275,-16,30,-7,1,-5,20,-17,-24,0
5280,-9,27,-19,-6,-5,-75,79,-29,0
5285,6,4,14,6,-2,0,-57,-18,0
5290,-18,-5,-3,1,7,-1,-47,-37,0
5295,0,10,-8,19,3,-50,-53,-108,0
5300,101,-64,-3,3,2,-64,9,17,0
5305,127,38,17,-16,-21,-9,106,27,0
5310,91,76,12,-4,-3,38,77,62,0
5315,53,20,-20,19,-4,-38,51,118,0
5320,-46,-73,23,-4,-11,-67,9,-110,0
5325,-88,-23,6,62,2,-38,48,91,0
5330,-61,-105,9,-34,16,24,69,55,0
5335,-97,82,-3,-61,-23,-23,28,-91,0
5340,-106,-57,-26,-30,-24,-62,-26,-121,0
5345,-66,-120,-1,22,12,40,25,45,0
5350,-80,8,-30,10,-4,-17,57,-53,0
5355,-51,-8,-14,36,40,-1,-1,-61,0
5360,-53,35,-17,-30,0,3,-41,64,0
5365,-39,39,-14,-57,14,-21,28,41,0
5370,-29,15,-5,-1,2,27,31,43,0
5375,-24,1,22,4,5,17,-18,-57,0
5380,-13,94,14,47,-16,37,-22,-36,0
5385,-20,5,-8,-4,-28,65,22,-47,0
5390,-10,-40,-7,-20,-20,24,13,70,0
5395,2,-53,23,-26,-27,-2,-12,15,0
5400,-21,0,14,19,-1,38,-9,23,0
5405,-7,56,-4,10,7,92,10,16,0
5410,-1,29,9,-7,13,51,2,18,0
5415,-2,-21,-4,-6,8,2,-2,-9,0
5420,-10,29,-11,-2,38,-20,-9,106,0
5425,-6,31,13,-22,-1,-8,1,-36,0
5430,5,4,15,20,11,-4,7,-10,0
5435,-3,-54,-1,7,2,-29,0,-25,0
5440,-6,-56,-26,-32,-26,-29,-11,-50,0
5445,-72,-15,-25,7,-10,-12,1,37,0
5450,-14,5,-9,21,-22,-68,10,-21,0
5455,51,-5,-5,7,-14,-59,-3,-30,0
5460,-80,-37,9,-13,-8,-2,-11,-63,0
5465,-87,-52,12,9,24,4,5,28,0
5470,-94,-15,10,11,0,4,5,41,0
5475,-20,-8,6,5,19,17,-5,3,0
5480,11,33,-15,-10,7,-22,-6,-107,0
5485,-61,8,-17,-8,14,6,4,17,0
5490,-121,9,-7,-16,-4,4,2,-62,0
5495,-21,15,7,-3,-1,-1,-3,-39,0
5500,79,17,1,2,-2,0,-3,-17,0
5505,127,15,7,-35,-29,-25,1,-95,0
5510,127,4,-4,-19,-23,1,0,-8,0
5515,110,13,-5,-2,-15,11,-1,-42,0
5520,106,35,-1,9,-1,-3,27,-92,0
5525,110,25,-5,-2,2,-7,-27,-40,0
5530,114,5,-19,-1,8,-2,-8,-63,0
5535,94,-6,-2,-6,-7,7,107,-71,0
5540,37,-26,-1,3,0,-2,43,9,0
5545,-7,-17,5,17,0,-7,-56,-14,0
5550,121,0,17,-3,-31,-15,-38,-128,0
5555,67,-23,-4,-2,-1,7,59,-24,0
5560,51,-16,2,-6,-1,-1,-5,36,0
5565,51,-4,1,-3,1,2,-59,15,0
5570,2,-4,10,6,1,3,-52,4,0
5575,61,-2,8,11,11,10,-72,126,0
5580,15,9,10,-6,2,-6,29,39,0
5585,-69,1,-4,-4,1,1,-50,39,0
5590,12,31,18,19,-4,4,89,-25,0
5595,29,-8,-12,-15,-6,-3,67,-23,0
5600,71,40,19,15,-9,-8,85,-8,0
5605,-40,10,-4,-4,-7,-38,48,-18,0
5610,-128,-5,-16,-6,3,2,-112,-99,0
5615,-128,-4,3,-2,1,-5,54,-63,0
5620,-32,-55,1,11,0,9,69,33,0
5625,127,-51,-4,2,-8,4,127,55,0
5630,48,-54,-9,1,-1,-4,77,86,0
5635,119,-29,3,-6,-3,-12,81,59,0
5640,1,-36,-8,-14,-1,-5,16,11,0
5645,-41,-37,-6,-2,2,6,-20,-95,0
5650,-57,-12,-16,-4,8,5,-56,-18,0
5655,56,30,-4,-4,-2,2,-90,2,0
5660,-128,56,7,-2,5,-3,-119,-32,0
5665,64,62,-4,1,3,3,-77,-113,0
5670,63,46,-9,-5,-4,1,-96,-72,0
5675,-128,39,-4,8,-2,-2,-128,34,0
5680,-90,13,6,-7,-9,-3,-116,-2,0
5685,-107,11,0,-8,-4,-3,-67,-63,0
5690,93,-2,-3,-8,-6,-5,-57,14,0
5695,98,13,4,1,-3,-1,-127,48,0
5700,126,45,-5,6,5,0,-128,27,0
5705,-56,12,-1,5,2,3,-28,-51,0
5710,-50,-19,5,-2,-1,6,120,-3,0
5715,49,-24,1,-7,5,-2,112,22,0
5720,-4,-34,4,3,10,-3,110,11,0
5725,-37,-1,-3,4,-8,5,126,-10,0
5730,-6,-7,4,-2,-6,-9,127,4,0
5735,36,-39,-1,-3,-1,5,70,10,0
5740,-13,-35,-12,-5,7,0,32,15,0
5745,-15,13,0,2,5,3,62,-2,0
5750,-128,6,3,9,-1,-1,50,2,0
5755,-128,6,4,4,5,-3,-1,14,0
5760,67,-9,-2,-3,7,-4,6,11,0
5765,116,-10,2,-4,2,1,5,-14,0
5770,127,-30,-3,3,0,-5,-3,-7,0
5775,99,24,-3,-1,-11,-2,-19,15,0
5780,59,-9,8,2,-2,0,0,6,0
5785,121,18,-3,-1,-3,-1,-4,-28,0
5790,114,-18,7,-10,1,-2,-16,7,0
5795,22,59,-4,14,6,-16,1,2,0
5800,-32,-10,-2,-19,-3,-3,-26,32,0
5805,8,1,11,-3,-3,-12,-10,-20,0
5810,1,46,-14,-17,10,-3,-15,-9,0
5815,-76,-44,2,15,-19,10,0,2,0
5820,-55,47,-6,-13,12,-2,-2,-6,0
5825,-7,-36,5,-11,-24,17,-2,-11,0
5830,-13,-31,-9,-16,-7,-1,0,-13,0
5835,-43,1,-2,7,5,0,-21,19,0
5840,-13,-1,-10,30,-6,-2,-14,0,0
5845,29,-19,-4,-9,1,-4,3,-1,0
5850,-21,-32,-2,-11,-5,1,1,3,0
5855,-44,-5,3,-4,-23,-10,-14,2,0
5860,0,-10,-3,27,-15,2,4,-10,0
5865,-8,11,-7,15,1,4,-6,8,0
5870,-12,17,-2,-7,-9,105,1,4,0
5875,7,-4,1,-6,6,-5,2,0,0
5880,-6,30,3,2,38,-24,27,-11,0
5885,1,19,-3,-51,5,-122,0,21,0
5890,-17,21,-5,-15,-7,-18,-24,-7,0
5895,-10,-31,-5,-21,-57,-74,-22,-31,0
5900,21,-8,8,5,13,-20,10,-6,0
5905,34,-6,5,8,83,-7,-1,-3,0
5910,1,-15,7,13,25,-22,9,9,0
5915,-61,5,-18,25,-43,68,-6,16,0
5920,6,0,-36,-45,-97,-48,-101,-5,0
5925,11,-76,-5,-71,-128,105,42,-31,0
5930,0,19,-8,70,-32,60,13,0,0
5935,10,27,32,33,127,66,4,4,0
5940,-31,23,5,96,112,85,80,14,0
5945,-17,20,4,-17,88,111,15,80,0
5950,-33,-32,-1,-46,-59,101,21,-29,0
5955,3,76,-9,-42,-109,21,-25,-17,0
5960,24,60,-12,-12,-97,-60,-28,-26,0
5965,0,-29,3,-8,-79,-83,-37,-48,0
5970,17,-54,10,-37,-46,-105,-37,-29,0
5975,-4,-87,3,26,-42,-89,-44,0,0
5980,8,28,0,-10,-29,-52,-32,16,0
5985,6,48,-10,80,10,-33,-49,33,0
5990,6,-17,1,22,17,-28,-68,38,0
5995,-14,-23,-6,-42,27,-34,-111,-13,0
6000,-13,-55,13,-12,-1,-10,-128,-3,0
6005,10,5,-1,23,4,-4,-111,-9,0
6010,12,50,-6,7,36,-54,-25,7,0
6015,-1,11,0,-25,17,-21,93,23,0
6020,-16,-33,9,-51,8,28,127,-20,0
6025,10,6,5,-18,7,10,119,-78,0
6030,8,33,-4,-13,1,-37,11,-38,0
6035,-27,-6,-18,21,0,18,-61,-49,0
6040,-10,-19,6,-25,-6,42,-103,0,0
6045,-3,-3,1,28,-3,-4,-102,5,0
6050,2,-4,-9,16,-8,-37,-96,4,0
6055,7,4,2,13,-8,4,-73,18,0
6060,-12,0,4,35,-16,-9,-71,19,0
6065,1,12,5,-8,-2,-7,-65,16,0
6070,5,8,1,-1,1,10,-39,11,0
6075,1,-5,-2,-20,3,14,-117,6,0
6080,-1,-28,1,-15,7,7,-116,-3,0
6085,1,16,-1,24,17,16,-93,-13,0
6090,4,13,1,19,14,1,37,3,0
6095,-2,-12,-4,3,17,0,127,-8,0
6100,-11,-30,-2,-14,-2,4,127,17,0
6105,7,7,5,30,-1,-26,127,11,0
6110,5,15,-1,10,0,-29,115,4,0
6115,0,-6,-6,-3,-6,-12,122,-3,0
6120,-4,-1,1,-28,1,23,105,-3,0
6125,-7,-7,5,-22,6,36,85,2,0
6130,6,-5,0,-5,10,5,59,1,0
6135,6,9,-5,-10,-9,-5,50,-3,0
6140,12,9,-3,40,-12,10,35,2,0
6145,14,4,1,21,-10,-18,36,-4,0
6150,-41,-8,5,-3,-1,-67,18,-5,0
6155,-14,-36,5,-25,-14,0,9,0,0
6160,25,-2,-10,-29,34,39,14,-10,0
6165,16,-33,-1,97,-29,-44,15,21,0
6170,-11,2,-20,0,39,-56,0,-15,0
6175,-6,-103,15,-83,-19,-42,1,-7,0
6180,13,8,12,-82,-16,-128,7,-3,0
6185,8,105,-33,-33,21,-108,8,-15,0
6190,6,51,21,0,16,-113,-6,13,0
6195,0,61,0,-1,28,64,0,11,0
6200,-4,18,-1,14,-14,121,5,5,0
6205,-2,-16,12,22,-27,127,1,-8,0
6210,2,-23,-3,9,-34,83,-3,-6,0
6215,-19,-17,-12,-19,-17,-23,1,8,0
6220,-25,-14,-2,-13,-26,-14,1,-4,0
6225,-8,4,-6,-7,-11,-3,1,8,0
6230,22,-23,-3,16,-3,81,-1,6,0
6235,7,3,2,28,1,56,0,-8,0
6240,-7,2,1,8,4,6,-1,-2,0
6245,-14,-20,4,-40,5,25,2,-4,0
6250,5,-4,-1,-23,-7,56,-1,-14,0
6255,7,20,-1,24,9,37,-3,-10,0
6260,-3,13,-1,27,6,65,1,-10,0
6265,0,1,5,-28,6,89,112,4,0
6270,10,-3,5,-11,-5,123,123,8,0
6275,-4,13,-4,25,2,101,100,-5,0
6280,-4,-27,5,1,-9,53,51,-3,0
6285,-5,-24,8,-12,4,90,-114,14,0
6290,0,-11,0,-7,-13,-89,-14,-6,0
6295,-1,1,-17,14,5,-123,-128,-9,0
6300,-2,16,-7,14,-8,-128,-102,3,0
6305,5,18,-10,-31,-15,-128,55,12,0
6310,4,22,5,-1,-3,-96,85,19,0
6315,7,48,3,18,2,-63,127,-12,0
6320,2,-28,-1,28,0,-13,73,-6,0
6325,-5,-32,-4,-15,-10,-18,-67,-18,0
6330,-12,-34,-5,-27,-18,63,-128,-12,0
6335,-3,-7,-4,-12,17,44,-119,-10,0
6340,5,14,1,14,18,38,-128,-5,0
6345,0,-3,2,-3,49,-19,-82,-8,0
6350,-2,-22,-4,-14,29,1,-102,3,0
6355,2,-11,-1,15,8,-5,-128,13,0
6360,-3,15,-5,1,-4,-25,-24,5,0
6365,-10,-19,0,-3,-29,-38,41,-1,0
6370,-4,-13,-3,-11,-22,-11,11,-4,0
6375,5,-13,-5,-9,-10,-6,12,-6,0
6380,1,-4,2,10,4,-2,34,-18,0
6385,0,24,1,1,-9,-16,40,-10,0
6390,-1,24,-5,-8,8,8,-4,4,0
6395,-14,4,5,-4,-6,-2,-22,4,0
6400,-7,-2,0,-3,-2,7,21,2,0
6405,-7,2,1,4,-11,15,27,9,0
6410,-6,4,-4,10,-11,17,-7,5,0
6415,3,-1,-8,3,-15,7,-18,5,0
6420,-1,-5,-4,6,-1,-1,4,6,0
6425,-3,-19,-2,7,5,-9,-1,10,0
6430,-3,-20,-2,8,-4,-19,-20,2,0
6435,-6,-14,10,5,-7,-19,9,4,0
6440,-3,-7,3,-6,2,-15,3,1,0
6445,-9,-1,-1,-10,-5,-21,-20,1,0
6450,-1,0,-11,-11,0,2,-22,-10,0
6455,15,-15,6,-4,9,15,4,-13,0
6460,21,10,2,-3,5,22,-1,-15,0
6465,23,19,3,-13,-1,44,-6,-8,0
6470,21,26,1,-24,30,44,-4,-4,0
6475,7,24,4,-20,14,33,-3,-3,0
6480,-2,17,4,-7,4,62,-5,10,0
6485,-10,13,-4,2,-5,28,-12,5,0
6490,-10,5,0,16,-19,12,6,3,0
6495,-5,14,-3,8,-17,-29,29,4,0
6500,-11,-26,-2,5,-16,-45,6,6,0
6505,-16,-31,-3,7,-16,-40,-11,2,0
6510,-6,-15,-6,10,-22,-41,-5,0,0
6515,-6,-7,2,6,-3,-28,-2,-3,0
6520,-5,0,-1,1,-3,-24,-7,-7,0
6525,0,0,6,-3,-3,-8,-10,-7,0
6530,19,58,-98,3,2,7,3,17,0
6535,-45,103,76,-92,37,29,73,-40,0
6540,-17,-102,-21,60,-42,42,52,22,0
6545,26,-70,-24,40,28,-10,-104,-10,0
6550,41,46,46,48,-54,-5,-20,-35,0
6555,38,-29,-18,51,20,47,22,66,0
6560,-26,127,-67,1,42,64,44,-60,0
6565,6,-99,20,1,-49,-48,34,-22,0
6570,-51,-40,1,-105,-16,-38,-56,12,0
6575,-22,84,-16,-12,-30,-33,-31,-9,0
6580,-44,10,50,76,29,-16,45,36,0
6585,-52,14,-12,57,20,-8,54,6,0
6590,-64,47,28,-70,4,-42,10,-44,0
6595,11,-24,-23,-26,-21,-62,-44,119,0
6600,95,17,-35,-80,3,-124,-64,-80,0
6605,24,14,5,-112,66,4,-79,-9,0
6610,17,-128,36,81,-3,115,-28,-13,0
6615,30,43,-45,104,-21,78,19,-53,0
6620,-12,-1,29,-10,-74,-10,38,31,0
6625,11,12,13,-34,-1,-76,59,-14,0
6630,-10,51,4,-14,5,-1,50,12,0
6635,7,-28,27,0,30,68,-10,-12,0
6640,35,16,17,4,50,52,-6,4,0
6645,-19,83,14,-29,-2,38,12,7,0
6650,8,40,-26,15,13,-56,-26,32,0
6655,11,-58,-31,12,-33,-67,-41,-13,0
6660,-27,-113,-1,-48,-27,-27,-31,11,0
6665,-32,-54,-28,15,-15,16,-29,11,0
6670,-3,-43,0,43,-1,27,19,-5,0
6675,9,-29,14,-26,-8,-14,12,-14,0
6680,-7,11,21,-50,-1,17,-25,-3,0
6685,-6,61,-10,0,-1,35,-13,-7,0
6690,18,64,8,42,17,-6,24,-3,0
6695,-1,29,22,-15,20,-24,17,-11,0
6700,-7,-9,3,0,11,-16,-19,0,0
6705,-2,-16,-12,34,-16,-2,-1,-6,0
6710,0,-38,-6,-19,-17,-12,17,2,0
6715,-10,12,-13,-30,-9,-21,24,-4,0
6720,-1,14,-2,7,-9,1,-11,1,0
6725,-4,2,-1,4,-21,4,3,0,0
6730,-6,-34,-8,-18,3,-35,-8,-1,0
6735,-2,-51,-7,15,2,-3,7,-4,0
6740,8,-35,-14,19,20,8,21,18,0
6745,5,6,2,-2,63,61,47,17,0
6750,13,37,-2,-5,58,38,22,4,0
6755,-7,-6,13,2,-4,-21,-49,-20,0
6760,-26,-36,26,-42,5,0,-99,-24,0
6765,-16,68,4,-14,-11,1,-78,-35,0
6770,-2,16,7,-3,-34,-13,-23,-22,0
6775,5,21,8,-26,-10,29,61,3,0
6780,10,14,16,-38,-10,-4,5,-5,0
6785,-3,-8,23,20,-35,-43,71,27,0
6790,14,81,-7,-27,-1,40,68,31,0
6795,6,-24,-25,24,16,-43,39,32,0
6800,-5,-48,-44,38,-11,-39,16,23,0
6805,-5,-86,-47,47,-19,-86,-1,-15,0
6810,-8,3,-19,40,-6,-66,-60,-5,0
6815,-1,10,49,36,0,39,-3,-26,0
6820,6,114,31,2,31,56,-2,-1,0
6825,-1,43,19,-44,1,88,-7,0,0
6830,-6,-30,-3,-29,-3,15,7,3,0
6835,-11,-10,-17,-26,-4,-14,-6,-10,0
6840,-7,-5,-8,4,-12,-31,15,12,0
6845,8,-25,2,16,-15,7,5,-2,0
6850,12,-42,-3,7,-3,13,-16,15,0
6855,10,-52,-14,-32,45,2,-36,0,0
6860,-4,-41,-4,3,0,-29,-32,-6,0
6865,-12,-18,-4,7,-4,-1,-22,-12,0
6870,0,-40,5,4,9,-3,-16,-15,0
6875,-2,3,-7,-6,-9,15,-2,-17,0
6880,-4,10,-7,-26,3,8,7,8,0
6885,0,43,9,-29,18,32,4,12,0
6890,-5,41,2,1,9,22,-4,1,0
6895,-2,37,3,-5,-18,-10,-1,0,0
6900,-2,-3,-2,-19,-8,18,15,-5,0
6905,-1,-21,1,16,4,-19,8,-2,0
6910,-1,16,9,13,5,-23,26,-15,0
6915,4,9,2,-24,-9,51,15,7,0
6920,7,31,-3,12,49,-105,49,9,0
6925,-3,16,4,13,-21,58,-1,18,0
6930,3,-40,-23,-10,1,-8,6,-3,0
6935,-8,-11,-8,22,-9,-14,-28,-5,0
6940,-8,-16,4,13,-7,24,-26,-6,0
6945,-4,1,-3,29,3,-14,-17,-1,0
6950,-4,-14,7,-17,-3,5,3,11,0
6955,4,-1,0,-2,-6,-2,10,1,0
6960,1,-14,-4,22,-23,8,-2,-3,0
6965,-4,-3,-4,-24,-9,-34,10,-8,0
6970,-2,-6,0,-1,-12,18,3,1,0
6975,2,22,0,5,12,-23,-4,10,0
6980,2,32,5,3,-6,26,-10,6,0
6985,0,1,-4,-18,1,-5,-19,-5,0
6990,-2,9,9,-3,-2,-5,-13,-5,0
6995,-7,10,-3,13,4,8,1,-7,0
7000,2,-2,-6,3,-9,22,5,-3,0
7005,4,-14,-6,-10,0,10,-14,3,0
7010,0,-35,-7,4,-3,5,-12,5,0
7015,-3,-39,-9,-9,1,-29,-19,5,0
7020,-9,-58,-5,10,-7,-10,7,-2,0
7025,-2,-34,-5,9,-8,-38,19,9,0
7030,4,-17,0,-4,8,-29,18,-5,0
7035,3,12,6,-7,-14,7,23,-12,0
7040,-1,57,10,-13,-6,6,12,-14,0
7045,-5,42,0,-7,0,15,8,-20,0
7050,-2,31,-5,-23,4,11,8,-7,0
7055,2,13,-16,-14,1,12,8,-5,0
7060,-1,11,-10,-13,-7,4,-11,-7,0
7065,0,4,-9,-3,-1,-4,-6,0,0
7070,-6,-9,-5,1,8,7,-17,3,0
7075,-6,-11,-5,-2,8,-8,-19,1,0
7080,0,-15,5,2,-6,3,-13,-7,0
7085,-1,-24,2,-3,-9,-1,-3,-2,0
7090,-2,-18,4,4,-3,-1,10,-2,0
7095,5,-7,8,8,-12,7,-5,5,0
7100,-2,-4,-3,6,-9,8,-4,-3,0
7105,0,-5,-4,14,3,-3,-2,6,0
7110,0,2,-4,-5,-4,-1,-3,13,0
7115,-8,5,-9,9,2,9,-13,6,0
7120,0,5,-9,2,3,12,-8,4,0
7125,-1,7,-4,-10,4,4,-4,2,0
7130,1,14,6,-2,-4,-11,15,-4,0
7135,7,1,2,1,-6,-19,8,4,0
7140,5,0,3,-3,-8,-27,-14,1,0
7145,6,3,-7,-6,-1,-27,-5,-6,0
7150,-7,-2,-7,-1,2,-4,6,4,0
7155,-10,-17,0,-8,-2,1,-3,5,0
7160,-5,-11,11,0,-1,5,4,0,0
7165,-3,4,9,-6,5,9,6,2,0
7170,-2,4,4,4,-6,13,-4,-1,0
7175,1,-3,-7,1,8,2,11,-9,0
7180,2,-6,-4,-4,-2,-4,17,-10,0
7185,0,-12,0,-10,-8,-6,7,-2,0
7190,3,-11,-2,0,3,6,15,-13,0
7195,-4,3,0,4,6,20,8,6,0
7200,4,7,-7,10,4,11,3,-16,0
7205,-2,13,-3,-1,-10,-7,2,-2,0
7210,-4,-1,-5,-10,-19,-13,-8,4,0
7215,-3,-4,-3,-1,-18,-30,15,5,0
7220,-6,-7,-9,2,-18,-22,-2,3,0
7225,0,-7,-1,-10,9,8,-6,-19,0
7230,-5,1,6,23,19,33,-9,6,0
7235,-10,28,5,-10,17,55,-7,-11,0
7240,-8,17,-8,-15,9,20,-4,24,0
7245,-8,11,-7,-12,-17,12,-2,-7,0
7250,-3,13,-4,-13,-6,11,-30,7,0
7255,6,8,-4,13,-3,15,-4,-7,0
7260,5,-2,-4,1,2,15,-2,-4,0
7265,3,-14,-6,16,5,-4,-20,-13,0
7270,10,-69,-4,5,-7,-3,-22,-8,0
7275,8,-56,-1,10,-19,-10,-27,10,0
7280,-2,6,-2,-32,-8,14,-26,-6,0
7285,-8,-7,6,2,3,58,-25,15,0
7290,12,18,12,-10,28,-113,37,19,0
7295,0,0,7,-17,-18,97,4,-5,0
7300,5,-5,9,-26,-5,-104,13,4,0
7305,1,-2,-11,-9,16,4,15,-6,0
7310,0,20,-4,13,2,108,16,-31,0
7315,-7,20,-1,-4,10,24,-7,4,0
7320,-2,4,-7,28,18,-40,0,13,0
7325,6,-17,0,1,5,-103,2,2,0
7330,-5,-28,-17,-3,-17,51,-10,-10,0
7335,-3,-5,-11,12,-3,66,13,-8,0
7340,-2,-26,2,11,-3,-35,-5,2,0
7345,1,26,-6,15,3,-66,7,9,0
7350,-11,14,3,-22,-11,91,10,-7,0
7355,-9,14,5,-18,10,90,-9,5,0
7360,1,8,6,-6,0,-35,4,0,0
7365,-2,0,7,-15,-2,-24,11,-1,0
7370,-4,2,2,1,-11,71,-17,0,0
7375,-2,3,3,-14,-7,53,5,-7,0
7380,4,1,4,12,3,-41,5,0,0
7385,0,14,10,14,4,-17,0,8,0
7390,0,16,-1,-4,-5,53,1,-8,0
7395,0,1,6,10,16,-15,1,3,0
7400,-2,-12,-1,6,-5,-8,-2,-1,0
7405,-5,-19,-6,-4,-8,-50,2,-1,0
7410,-2,-31,-5,-1,-7,31,-11,4,0
7415,4,-30,-11,1,-7,22,-13,-3,0
7420,-4,-6,-3,-2,3,24,-12,5,0
7425,2,21,-5,-6,-5,127,-6,2,0
7430,0,13,0,4,0,22,12,-17,0
7435,-7,-2,-3,5,4,-128,-17,23,0
7440,3,3,-3,-9,1,-36,3,-13,0
7445,-5,-8,2,-5,6,-46,9,0,0
7450,-13,-15,-2,-7,-1,51,-8,-5,0
7455,0,-27,-2,-13,-12,-44,-3,-12,0
7460,-5,-8,1,-5,-9,-26,0,5,0
7465,0,5,1,0,0,-32,3,5,0
7470,10,17,-4,-1,-3,-11,6,0,0
7475,7,9,7,0,-2,-6,0,-10,0
7480,-4,21,4,-7,5,-20,-16,-4,0
7485,8,-1,-1,-10,-7,87,-15,-1,0
7490,-10,0,-2,-3,-6,-3,-9,11,0
7495,0,6,-3,11,-14,-13,12,1,0
7500,6,6,-8,14,5,14,17,-1,0
7505,-3,-3,-5,4,7,36,-3,15,0
7510,5,9,1,-7,3,2,0,-8,0
7515,-4,6,0,-3,-6,-40,22,-18,0
7520,3,20,-5,10,4,-12,-2,-2,0
7525,-7,4,-2,16,1,18,10,20,0
7530,-11,-13,2,0,4,7,15,6,0
7535,-2,-28,-2,7,-3,-31,-7,-5,0
7540,1,-37,1,-2,-3,-13,6,-10,0
7545,5,-23,-5,-8,5,-68,-17,-10,0
7550,4,-10,4,6,9,-128,2,20,0
7555,-2,29,-4,4,16,-65,7,1,0
7560,-5,3,-5,10,2,85,-7,-5,0
7565,-8,7,-2,-24,1,94,-3,-8,0
7570,-3,-3,-4,-11,6,53,-15,3,0
7575,0,-1,2,-8,-4,49,-2,-5,0
7580,-5,17,1,6,-12,87,3,-6,0
7585,-3,6,5,-4,-24,53,9,0,0
7590,0,2,-1,-11,-12,-22,-14,-5,0
7595,2,-6,2,-6,2,-41,-15,-5,0
7600,-6,8,3,-17,-11,39,0,-2,0
7605,-1,5,-2,-6,-5,14,19,-6,0
7610,0,17,-3,5,-5,-66,7,8,0
7615,1,2,-3,-3,-15,-2,4,8,0
7620,-4,-34,-5,-7,-8,40,4,7,0
7625,6,-33,2,8,-5,-29,1,-3,0
7630,5,0,2,7,12,-31,6,-1,0
7635,7,16,6,5,12,19,2,-1,0
7640,4,5,3,6,-2,33,-5,9,0
7645,-2,12,4,6,5,-4,4,-2,0
7650,3,12,3,3,11,-3,-4,-3,0
7655,-4,-15,8,-11,2,0,-2,5,0
7660,1,4,-2,15,8,12,9,3,0
7665,3,12,5,3,1,10,4,6,0
7670,13,-46,0,10,3,-48,-5,-3,0
7675,0,60,-4,15,7,-5,-5,5,0
7680,10,-61,14,-27,6,-8,2,7,0
7685,6,84,-7,36,5,17,1,-7,0
7690,3,-52,18,-31,15,-22,10,-8,0
7695,7,91,-10,45,-3,9,-12,8,0
7700,-2,-74,16,-38,7,-8,3,-7,0
7705,7,96,-9,30,-13,14,-1,2,0
7710,-2,-80,22,-13,15,-31,-4,1,0
7715,2,70,-10,13,-19,62,15,3,0
7720,12,-51,9,27,19,-10,-10,9,0
7725,3,26,11,-33,-27,20,16,-5,0
7730,5,38,-2,50,28,-45,-20,9,0
7735,-8,-68,13,-30,-7,3,32,-17,0
7740,-2,124,-13,27,-9,25,-31,15,0
7745,6,-128,17,-35,-6,-19,39,-7,0
7750,-5,86,-24,29,-16,20,-26,-6,0
7755,-8,-100,16,-14,-2,-15,0,1,0
7760,8,54,-15,-25,-29,24,3,-12,0
7765,-9,-83,5,-6,2,-19,-29,5,0
7770,-1,41,-19,-17,-73,24,12,-16,0
7775,-10,-46,6,19,-52,-71,-37,4,0
7780,-3,7,-7,15,97,-2,33,-21,0
7785,-8,14,-6,22,117,-48,-39,15,0
7790,-9,-2,4,-34,127,-24,17,-23,0
7795,0,8,7,-10,99,-3,-15,13,0
7800,14,40,12,15,-33,31,17,-7,0
7805,0,15,3,-11,-72,32,0,-2,0
7810,2,17,2,-3,-118,20,14,12,0
7815,1,11,-8,-46,-90,-3,10,3,0
7820,-5,-36,-1,-10,-88,38,-1,-21,0
7825,-10,-57,4,14,-74,-50,0,-10,0
7830,-5,10,-8,32,-80,-7,-16,-3,0
7835,-1,-6,-14,22,-48,26,4,3,0
7840,-3,-14,-6,9,-50,-13,-6,23,0
7845,6,11,-6,8,-52,-5,1,-6,0
7850,-2,-25,2,1,-32,-13,3,1,0
7855,2,-11,4,-4,-12,-23,3,-4,0
7860,3,5,2,-20,-28,8,0,9,0
7865,3,8,1,-18,-17,13,3,-5,0
7870,1,9,2,13,-11,7,-5,3,0
7875,-1,17,-11,10,-1,-15,-12,-7,0
7880,-8,-4,-11,-8,-13,-6,-9,-5,0
7885,0,-13,-8,1,-6,2,-5,-3,0
7890,1,-35,2,-7,-6,14,-1,3,0
7895,2,-25,7,-6,-6,17,-1,4,0
7900,-9,-11,5,5,-4,-1,-1,4,0
7905,5,20,-3,0,0,1,4,4,0
7910,0,29,0,1,-6,1,3,6,0
7915,3,15,3,-1,0,-16,9,-4,0
7920,-1,23,0,-3,-1,-15,2,7,0
7925,4,-7,-3,-13,0,-4,5,-4,0
7930,-7,-22,3,-8,-4,-7,4,-2,0
7935,1,-30,5,1,1,-2,-3,-2,0
7940,-2,-14,-9,0,-2,4,-7,-6,0
7945,-3,-5,-5,5,-36,-2,-6,1,0
7950,-2,-9,-3,-7,-4,-7,-1,4,0
7955,-1,7,-3,6,-57,-16,-2,-4,0
7960,-3,14,0,19,-62,12,4,3,0
7965,3,-2,-4,-5,-128,10,-4,2,0
7970,2,-6,-5,2,-128,5,-7,-5,0
7975,11,-7,2,31,-116,30,5,6,0
7980,1,2,-3,44,-32,-8,6,6,0
7985,-2,2,-4,72,112,-27,2,-6,0
7990,2,-5,2,59,120,23,10,2,0
7995,-5,46,4,-55,127,9,4,6,0
8000,1,71,8,-117,109,19,-8,-2,0
8005,-4,61,6,-107,102,18,-1,-10,0
8010,-11,13,3,-52,104,-13,-8,-3,0
8015,-7,-32,-5,9,61,-17,-6,-13,0
8020,-3,-49,-6,20,38,-18,-3,-7,0
8025,1,-41,-7,18,49,-3,4,1,0
8030,5,-23,1,21,15,1,1,10,0
8035,1,-15,-8,22,20,-6,-7,13,0
8040,-3,-21,-4,10,16,-9,-6,-5,0
8045,2,-21,-7,3,-4,-7,-5,-8,0
8050,3,-1,0,-6,-15,-3,2,-3,0
8055,1,18,7,-3,-3,-1,5,-7,0
8060,-1,23,4,0,3,-4,4,-5,0
8065,0,20,1,9,-12,3,3,5,0
8070,-3,19,2,-5,-7,0,-1,10,0
8075,-6,-9,-6,-11,6,-2,-5,-2,0
8080,1,-23,-5,3,-5,8,2,-4,0
8085,2,-17,0,-1,0,8,2,0,0
8090,3,-4,0,-10,1,-1,-3,1,0
8095,-6,3,-4,-8,8,-11,-2,-4,0
8100,-3,1,-5,-8,-3,-5,-1,3,0
8105,-8,2,2,-19,8,4,-1,1,0
8110,3,0,-1,-21,6,5,2,1,0
8115,1,-9,7,-5,0,16,2,-9,0
8120,-3,-5,1,8,1,0,-1,2,0
8125,-1,8,0,18,-12,8,-1,3,0
8130,4,9,-2,45,-45,11,0,8,0
8135,9,-1,-3,74,-52,-13,2,14,0
8140,6,-15,-5,75,-54,-12,-4,2,0
8145,7,-18,-2,50,-20,-21,-3,-2,0
8150,-8,8,-2,-4,-17,-18,3,-16,0
8155,-4,23,0,-21,-18,-23,5,-7,0
8160,-7,32,4,-20,-46,-13,-10,-3,0
8165,-2,21,-3,-31,-67,21,-1,0,0
8170,3,-12,-4,-45,-12,9,-8,-2,0
8175,20,-16,3,-45,48,46,12,14,0
8180,-2,-43,-7,-43,72,-29,-7,-10,0
8185,-3,-38,-5,-20,-88,-39,-8,-7,0
8190,-5,-2,2,-27,-57,-28,-2,-7,0
8195,-4,12,-6,8,-36,-13,-5,-2,0
8200,4,42,8,19,3,20,0,5,0
8205,-1,44,7,-29,-68,11,8,4,0
8210,-5,15,0,-12,-83,-12,-12,0,0
8215,-7,-13,3,0,95,3,0,-6,0
8220,7,-28,-4,0,111,32,12,-4,0
8225,1,-32,-5,5,67,9,1,2,0
8230,2,-22,-2,13,10,9,5,0,0
8235,-8,-18,0,-24,-19,0,-3,2,0
8240,-2,6,-9,-7,98,-9,-5,-5,0
8245,-4,20,-3,-24,-59,-7,-4,-6,0
8250,1,11,-2,-36,38,8,8,3,0
8255,2,4,-5,-69,-36,-1,-4,-3,0
8260,-7,-3,0,-120,-128,3,1,0,0
8265,0,-3,0,-125,-64,18,-5,1,0
8270,1,-3,-2,-87,-124,26,0,-2,0
8275,4,9,3,82,-105,3,0,-8,0
8280,-7,4,1,114,-105,-29,7,13,0
8285,-8,28,5,127,-6,-60,-1,-1,0
8290,-2,31,3,127,31,-39,3,1,0
8295,-4,15,-4,106,46,1,1,1,0
8300,-1,-13,-5,33,22,22,6,4,0
8305,-4,-55,-1,-85,46,3,-16,-8,0
8310,31,-30,10,103,127,48,29,32,0
8315,-5,3,-6,-65,5,18,-11,-15,0
8320,2,8,12,-72,-23,4,2,-3,0
8325,1,7,1,-97,25,-6,-11,-8,0
8330,-12,8,-7,-128,-1,-25,-10,-11,0
8335,1,-7,-2,106,-7,-16,2,5,0
8340,9,-5,-3,124,14,13,9,0,0
8345,5,-6,-2,86,50,17,4,5,0
8350,-4,-1,1,26,16,2,-8,0,0
8355,0,18,4,43,-8,5,-8,-1,0
8360,-8,5,-3,20,-7,-9,-13,-8,0
8365,6,0,-2,4,42,-3,2,7,0
8370,0,-6,-8,-46,-2,-13,-10,-6,0
8375,1,-30,-4,16,-11,-4,-15,-3,0
8380,5,6,-4,25,-23,17,-3,7,0
8385,8,16,0,-53,-11,16,3,7,0
8390,-3,9,-2,-103,-33,-6,8,-13,0
8395,-3,6,8,-17,-18,-32,5,-6,0
8400,-2,-9,6,95,3,-27,10,-8,0
8405,-2,1,1,-12,24,5,10,-2,0
8410,-2,-6,0,-88,4,-11,-1,-4,0
8415,-2,-19,-1,8,1,-3,5,4,0
8420,-6,-27,0,72,-1,1,-9,-1,0
8425,-8,-16,-7,-39,11,-4,-6,-3,0
8430,-9,-7,-5,-38,-4,1,-10,-4,0
8435,-4,2,-1,5,-4,7,4,-1,0
8440,-4,14,-1,49,2,3,5,6,0
8445,-1,12,2,-9,9,3,6,-4,0
8450,3,7,2,-33,-1,5,-3,-3,0
8455,-3,5,1,-11,10,5,-4,1,0
8460,-1,7,-3,-1,-6,7,-4,0,0
8465,0,-1,0,-23,-10,3,0,3,0
8470,-3,-12,-4,-29,-5,-4,-2,-1,0
8475,-3,-4,0,-84,-9,-10,-2,1,0
8480,6,-10,6,-128,-3,-3,3,2,0
8485,0,-13,-2,24,1,-6,-2,-2,0
8490,0,2,3,78,7,2,-3,-3,0
8495,5,-33,-3,-8,-11,15,-2,1,0
8500,3,19,-4,7,-2,-23,4,-2,0
8505,-5,10,0,85,0,-1,-6,3,0
8510,-9,-2,0,101,7,-11,-2,-7,0
8515,5,-9,-3,33,5,-1,4,0,0
8520,-1,-9,-3,-23,18,13,3,-5,0
8525,3,3,-7,46,7,-4,2,6,0
8530,-1,9,-5,113,4,-3,3,0,0
8535,-3,8,3,-12,5,-4,-1,3,0
8540,-4,3,-3,-45,-8,-8,-2,1,0
8545,-2,3,3,39,-7,5,0,-4,0
8550,-4,0,-5,60,-1,7,-2,1,0
8555,-1,-11,-5,-23,5,5,-5,-1,0
8560,-1,-5,-1,-32,-6,2,-2,-8,0
8565,1,4,0,42,-3,-10,1,-5,0
8570,-5,0,-4,31,-7,2,-1,2,0
8575,-3,11,1,-23,1,-1,5,3,0
8580,2,-20,-1,-1,-9,-4,-5,-1,0
8585,0,-6,-3,17,-7,-9,-8,-8,0
8590,0,-10,3,14,-3,-9,-1,-1,0
8595,-2,-4,-8,23,-7,0,-3,-3,0
8600,0,-9,0,114,-2,-1,1,-1,0
8605,-2,-13,-3,127,-9,-2,-4,3,0
8610,0,-6,-3,71,-4,1,-3,5,0
8615,-1,17,-1,-89,-4,-6,1,-8,0
8620,-6,-2,-2,-128,-2,4,-7,0,0
8625,0,-1,0,4,5,4,0,-5,0
8630,-1,-14,-3,127,0,-4,-5,-4,0
8635,-3,-3,0,-65,-1,-3,-4,-3,0
8640,1,3,-5,-71,0,8,0,1,0
8645,-1,-3,0,48,3,2,9,6,0
8650,-6,-1,8,-124,6,9,2,0,0
8655,-3,-1,-3,-57,4,-6,0,-1,0
8660,-3,2,0,-128,-6,-6,-4,4,0
8665,0,13,-2,5,1,8,-4,2,0
8670,3,12,2,94,4,8,10,0,0
8675,1,18,5,-75,4,-3,7,0,0
8680,2,15,1,-80,-4,-2,-3,-8,0
8685,5,2,-6,49,1,-1,-4,4,0
8690,6,-3,1,75,-3,-2,-4,-2,0
8695,0,1,2,-46,-5,1,6,-2,0
8700,-2,-10,-6,-47,-1,-1,2,4,0
8705,-4,-15,4,25,0,-4,-1,-2,0
8710,1,-3,0,52,3,-3,-4,0,0
8715,0,-13,-3,-20,-8,-11,-1,2,0
8720,-4,-13,-8,-50,3,-3,-4,-1,0
8725,-5,-11,-6,14,-2,1,0,1,0
8730,-5,4,-8,56,-6,-5,-2,0,0
8735,1,0,-3,-19,-5,-1,-6,3,0
8740,1,9,1,-36,-4,1,-4,-2,0
8745,-4,-4,0,17,3,-1,1,1,0
8750,5,-8,-2,-44,1,-4,-1,0,0
8755,-2,-1,-1,21,-2,2,2,0,0
8760,3,-1,2,25,3,-3,2,-7,0
8765,0,-5,1,-102,-1,0,1,-6,0
8770,-1,-4,2,-74,-6,-3,3,3,0
8775,-1,-5,-4,4,-2,-4,-6,-6,0
8780,-4,2,-8,39,2,0,-4,-1,0
8785,-2,10,-2,-24,-2,8,-2,3,0
8790,0,17,2,-38,-6,-1,-6,-4,0
8795,-2,16,-5,69,2,2,5,-4,0
8800,-2,17,-1,112,-2,0,-1,-4,0
8805,1,-9,-4,-19,-3,-1,-2,-2,0
8810,0,-8,2,-57,-2,-2,-3,1,0
8815,-1,-12,-4,36,0,-6,-1,-1,0
8820,-1,-12,-5,55,-3,0,-5,-1,0
8825,0,-2,-2,-47,3,0,1,-5,0
8830,0,-1,-3,-50,-6,-3,-4,-1,0
8835,-1,0,-2,28,-4,-4,-3,-2,0
8840,1,0,1,25,-1,-3,0,1,0
8845,4,-3,-3,-45,9,-2,-4,2,0
8850,0,-1,-3,-26,-6,0,6,-2,0
8855,-7,-4,-3,17,-2,-1,-1,4,0
8860,0,-8,-5,10,-6,7,-1,0,0
8865,2,-5,-3,-31,-6,17,-5,0,0
8870,-4,-4,-8,-30,6,8,-7,-2,0
8875,2,-6,-4,2,-4,-12,-1,6,0
8880,-5,-9,-1,8,-10,-8,6,-5,0
8885,-3,-1,4,-17,-8,-21,4,-4,0
8890,-1,3,1,-17,-6,-10,-1,-12,0
8895,1,21,4,9,0,3,-16,1,0
8900,-7,3,1,25,16,9,10,-2,0
8905,-5,6,-1,-6,-2,-4,-4,3,0
8910,0,-17,5,-9,0,-10,-9,-4,0
8915,-2,-13,-1,14,1,-21,-2,2,0
8920,-1,-2,-2,18,-8,-2,-2,-3,0
8925,3,11,3,-13,-6,-10,1,3,0
8930,1,19,-2,-18,13,4,4,2,0
8935,-2,4,7,-2,-7,-1,2,-6,0
8940,-1,23,7,5,-7,-6,0,0,0
8945,0,18,1,-41,-5,12,11,-8,0
8950,-1,12,6,-50,-7,0,1,-1,0
8955,-2,-6,1,-50,5,6,-5,-7,0
8960,-3,-38,-1,-100,-6,0,-16,0,0
8965,-6,-48,-7,-125,-7,-1,-8,1,0
8970,-17,-53,-12,-128,-16,-17,-9,-15,0
8975,-49,-59,-12,90,-38,-71,-74,-88,0
8980,-28,79,-20,123,-41,54,-51,-29,0
8985,-12,-80,-6,-25,-71,-104,-51,-17,0
8990,-22,95,-22,-106,-50,-48,10,-35,0
8995,-2,106,-2,-41,14,-17,44,34,0
9000,17,3,15,61,11,-59,21,13,0
9005,4,5,13,-72,29,60,20,-17,0
9010,24,-84,9,30,38,55,10,26,0
9015,5,-101,0,46,25,46,-14,26,0
9020,2,-52,-6,117,28,7,15,0,0
9025,0,-18,-12,-38,3,-21,-5,10,0
9030,-6,-6,-1,-115,-22,-39,-18,7,0
9035,12,65,-6,44,-15,30,8,1,0
9040,-1,4,1,9,-9,6,-6,3,0
9045,0,17,7,-60,-4,1,9,-7,0
9050,-6,5,-3,-26,4,6,1,-7,0
9055,1,-13,4,38,-2,-5,6,2,0
9060,6,-8,7,47,0,-1,5,5,0
9065,-3,20,-7,-30,6,16,2,-6,0
9070,-1,9,1,-34,5,5,-11,4,0
9075,8,-10,1,49,-1,-2,4,8,0
9080,2,-28,-2,30,-2,-19,0,-4,0
9085,-4,21,-3,-30,12,7,8,-1,0
9090,-1,-7,0,-24,5,3,1,6,0
9095,10,9,3,31,0,5,3,2,0
9100,1,17,-4,-6,-1,2,-4,-4,0
9105,-3,10,-2,-28,17,2,1,1,0
9110,3,4,-7,-55,4,11,1,4,0
9115,4,-9,0,9,-6,13,8,-3,0
9120,-5,-10,-3,-36,-8,-5,-1,4,0
9125,0,-15,2,-28,-6,-9,1,3,0
9130,-7,-27,2,35,2,-12,-6,-4,0
9135,4,-8,-2,13,1,-2,5,1,0
9140,-1,-13,0,-128,6,-3,4,-5,0
9145,-2,4,-1,-5,-4,3,-10,1,0
9150,-2,4,5,43,-2,3,-7,-9,0
9155,-5,6,-1,-8,3,2,0,-6,0
9160,-3,10,3,44,0,-1,1,-3,0
9165,-6,13,-3,124,1,0,2,3,0
9170,1,24,-1,127,5,7,3,6,0
9175,1,9,0,3,-2,-4,0,1,0
9180,3,-5,0,4,-6,-12,0,-3,0
9185,-13,-7,-1,89,0,-4,0,-1,0
9190,3,-16,-3,104,-9,-6,-9,-3,0
9195,4,-14,2,-29,-3,6,-2,9,0
9200,-3,-5,3,-33,-1,5,6,5,0
9205,2,2,-3,81,-13,4,-16,3,0
9210,-4,-3,2,53,-9,-4,14,-12,0
9215,-5,2,-3,-58,0,-3,8,-7,0
9220,-1,-3,-3,-18,1,6,-13,12,0
9225,1,-2,-2,50,12,5,1,0,0
9230,4,0,1,24,9,5,4,1,0
9235,2,-5,-4,-41,-9,-5,0,-1,0
9240,-3,-6,-1,-5,-4,-15,-4,-3,0
9245,-4,-2,-5,29,1,-7,1,-7,0
9250,2,7,-3,8,0,-1,0,0,0
9255,-5,4,-1,-17,4,7,4,-2,0
9260,-1,-8,-4,-9,-4,3,0,-2,0
9265,-2,-1,-1,8,-3,-4,-1,-8,0
9270,-4,-4,2,12,-8,-5,-4,1,0
9275,2,0,-2,-15,-8,-5,-7,-2,0
9280,-1,2,-3,-12,2,-1,3,-3,0
9285,-1,2,3,9,1,8,3,-1,0
9290,-1,-2,-2,14,-3,0,-5,5,0
9295,-2,0,1,-13,0,-2,3,-1,0
9300,-2,1,-1,-13,-1,-1,2,0,0
9305,-5,3,2,13,0,-6,-1,-2,0
9310,-3,4,-1,8,5,-2,-6,-2,0
9315,-3,1,-2,-16,-6,0,-3,0,0
9320,-1,0,-3,-7,3,-6,-3,-5,0
9325,4,-8,-5,116,0,-1,-5,-3,0
9330,-4,-9,-3,121,-2,-1,-5,1,0
9335,-5,-7,-5,118,2,0,2,-5,0
9340,-4,-4,-12,124,-8,3,-4,-3,0
9345,0,4,4,103,-3,-2,1,1,0
9350,5,3,-1,117,-4,-3,5,0,0
9355,2,-6,0,66,-3,-8,-5,-2,0
9360,-1,4,1,-81,0,-1,0,-2,0
9365,1,5,-1,-127,-7,2,-3,-2,0
9370,1,-1,-1,-128,-3,3,3,0,0
9375,-2,-5,-2,-128,-2,-4,0,-3,0
9380,-2,-8,-5,-107,-4,-7,3,-11,0
9385,-1,-9,-11,-126,-7,-6,-5,-6,0
9390,-4,-6,-5,-118,-1,3,-2,-1,0
9395,-1,-12,-3,-112,-5,-4,-5,-1,0
9400,-1,-7,-2,-79,-4,-9,-2,-4,0
9405,-1,-5,-3,-66,-4,-1,-1,0,0
9410,-4,0,-6,-59,5,2,-4,-1,0
9415,0,10,-3,-128,10,10,4,0,0
9420,-2,11,2,-119,4,4,1,0,0
9425,2,13,2,76,0,0,-1,0,0
9430,-12,18,3,4,0,-3,3,10,0
9435,18,4,-3,-80,-7,1,-25,-11,0
9440,-12,-12,2,-10,6,22,16,9,0
9445,8,15,-1,48,8,-4,-4,-12,0
9450,-6,-24,-2,34,-6,3,4,0,0
9455,-4,-4,-5,-53,3,-6,-4,6,0
9460,4,12,1,-15,-5,-5,-7,-6,0
9465,-8,1,-1,60,1,16,4,5,0
9470,5,4,0,41,5,8,0,-5,0
9475,-5,7,3,-60,-1,-2,10,-5,0
9480,5,-13,-1,-3,-6,-7,-7,4,0
9485,-4,-8,4,57,-3,-10,5,4,0
9490,5,5,1,26,-4,-6,-6,-2,0
9495,-8,1,-1,-56,-1,12,1,1,0
9500,-2,-5,-6,29,10,2,0,-4,0
9505,1,-5,1,46,-6,-9,-8,-6,0
9510,-5,-14,0,-6,5,-4,4,-2,0
9515,-5,-6,4,-27,-7,-4,-3,3,0
9520,-1,0,6,41,1,3,7,-4,0
9525,-1,0,-8,26,0,0,-5,3,0
9530,5,-7,-3,-2,-3,-4,-1,2,0
9535,0,4,3,-20,2,-5,6,-2,0
9540,-2,-1,-6,8,2,-5,0,4,0
9545,-3,-6,-1,17,-1,6,3,3,0
9550,2,13,3,-20,2,-4,-5,-4,0
9555,0,15,4,-5,1,6,6,0,0
9560,1,0,-5,5,-7,-1,-4,7,0
9565,0,-5,0,17,7,-2,4,-3,0
9570,-2,3,1,-9,-1,-7,3,-1,0
9575,1,-1,-3,-14,4,4,3,-1,0
9580,-3,2,0,5,-4,-5,-6,-6,0
9585,0,6,-3,11,-8,-7,-6,4,0
9590,0,-2,0,-8,-5,-6,-3,-3,0
9595,2,-4,0,-4,-8,-1,-3,-4,0
9600,-3,-3,-2,27,0,-1,0,1,0
9605,2,-8,-3,14,-7,-6,-2,-3,0
9610,0,2,1,-31,-5,0,0,-2,0
9615,-2,-5,-1,-10,-1,-1,3,3,0
9620,2,5,0,4,-7,-3,-4,3,0
9625,-3,-4,2,7,3,-3,0,2,0
9630,1,-1,2,-35,-2,-3,-2,-2,0
9635,-6,-9,-3,-5,-5,-8,1,1,0
9640,1,-10,-3,-85,-2,3,-6,-4,0
9645,1,5,-1,-88,4,0,4,1,0
9650,-2,4,3,45,-2,-2,-1,-7,0
9655,-1,3,-3,107,-3,1,-7,-2,0
9660,-4,1,-5,50,2,1,-3,-3,0
9665,1,-1,1,-45,2,-2,-1,-3,0
9670,0,-1,-2,-13,-4,3,6,-7,0
9675,2,-4,2,70,2,2,2,-5,0
9680,1,9,1,34,-4,-7,6,-6,0
9685,1,-7,-2,-61,-5,8,3,-4,0
9690,-5,4,-1,-20,-6,6,-1,4,0
9695,0,-2,1,48,-4,1,-8,-10,0
9700,-3,-4,3,11,-2,-3,-5,-5,0
9705,-3,1,5,-51,6,0,4,4,0
9710,3,-3,-3,-4,-1,2,0,-6,0
9715,-6,0,-6,44,-6,0,-5,-1,0
9720,1,1,-1,7,3,-4,-5,-1,0
9725,-9,0,-3,-38,8,-2,-1,0,0
9730,0,0,0,4,6,-3,-10,-1,0
9735,4,-2,5,31,4,-3,0,1,0
9740,-2,-3,0,2,-1,-3,0,4,0
9745,6,5,0,-28,-11,2,1,-3,0
9750,2,4,0,-7,3,3,1,6,0
9755,-3,-5,-6,15,-3,-4,0,2,0
9760,-2,-2,1,8,0,1,2,-3,0
9765,-1,-4,3,-14,1,-4,0,-1,0
9770,-2,-2,2,-14,-7,1,-3,-1,0
9775,-2,3,0,13,1,0,0,-1,0
9780,-2,-4,-4,4,-1,7,1,2,0
9785,-1,5,-1,-10,-3,2,3,-3,0
9790,-1,0,-3,-4,-1,-8,0,-2,0
9795,-7,0,-4,15,1,-7,-2,3,0
9800,2,2,-3,0,-2,-5,-8,-8,0
9805,3,-3,0,-16,-1,4,0,6,0
9810,-5,-2,0,-8,-6,-3,2,4,0
9815,1,0,-3,1,-5,-4,6,0,0
9820,-3,-4,-8,-6,1,-2,-3,-1,0
9825,5,-3,-1,-14,-4,-5,0,-4,0
9830,3,4,-5,-2,5,2,-1,-1,0
9835,-4,2,1,7,-5,0,0,-2,0
9840,-1,-3,0,10,5,7,3,-2,0
9845,-2,-4,-3,12,-9,-5,-4,-3,0
9850,0,-3,-2,20,-7,-9,-5,-3,0
9855,-3,0,-1,34,5,-4,-6,1,0
9860,1,-3,-3,-18,0,-4,-1,4,0
9865,-6,-6,-1,106,-2,-4,-6,-4,0
9870,-1,0,-1,-26,5,5,1,2,0
9875,0,2,0,-92,-3,7,0,-3,0
9880,-4,-6,-6,71,1,3,8,-3,0
9885,-3,-3,-2,48,-2,-7,-1,-3,0
9890,-3,-3,-4,-31,1,-5,3,1,0
9895,5,12,-2,-43,0,-3,-8,2,0
9900,3,5,0,15,-9,-1,-7,1,0
9905,-3,-5,-4,55,7,4,0,3,0
9910,2,-8,1,-12,-4,-2,-1,-2,0
9915,1,-13,-4,-76,-2,-7,-4,-4,0
9920,-1,-5,-1,10,-10,-10,-3,-6,0
9925,0,2,-5,60,-8,3,-5,1,0
9930,1,9,-1,-19,0,2,-2,-1,0
9935,-1,-2,4,-63,3,-3,5,1,0
9940,1,1,-1,27,-3,-3,2,0,0
9945,0,-12,-6,52,0,2,-1,-2,0
9950,-3,-3,-3,-21,0,-1,2,-1,0
9955,-1,-7,-2,-41,-6,-1,-5,1,0
9960,-3,-2,1,44,-10,-7,-6,-4,0
9965,-3,-5,-3,24,-1,-7,-3,-5,0
9970,-2,-6,-2,-32,-6,1,-2,-4,0
9975,1,-4,0,-17,0,5,3,-2,0
9980,-1,1,-1,14,2,2,0,-1,0
9985,3,5,2,15,-4,3,0,2,0
9990,-2,-4,-3,-10,-5,-5,-2,-2,0
9995,-2,-7,0,-14,2,-2,1,1,0
10000,-1,-7,0,5,4,3,4,1,0
10005,0,9,0,11,-4,-4,-2,-1,0
10010,-2,11,4,-9,-4,3,0,-5,0
10015,2,4,-3,-15,-9,-4,-13,-6,0
10020,-4,3,1,-4,-2,2,0,2,0
10025,-10,-5,0,16,3,0,-3,-3,0
10030,-4,-1,-1,-22,4,6,1,4,0
10035,-8,-7,-3,-20,2,4,4,2,0
10040,0,1,1,15,-2,0,-2,1,0
10045,-1,-6,-4,14,-5,0,0,-2,0
10050,1,-9,-7,0,-10,-2,0,0,0
10055,-7,-7,-2,-12,-4,-11,-5,-7,0
10060,-2,-6,-3,31,-3,-5,-3,3,0
10065,-3,0,-4,7,5,-4,-2,-5,0
10070,-1,-6,-3,24,7,-4,0,0,0
10075,2,0,2,30,9,4,3,-2,0
10080,-5,-1,-1,45,0,1,-3,-6,0
10085,-1,-4,-1,23,0,-5,-1,-2,0
10090,-4,0,-2,127,-4,0,-3,3,0
10095,1,6,-5,127,3,0,4,-1,0
10100,1,-1,-1,-88,-3,-5,-8,-6,0
10105,-1,1,1,-128,-7,-5,-6,1,0
10110,-1,8,8,-128,2,4,-1,-6,0
10115,-6,2,1,-44,-6,-9,7,-1,0
10120,1,-2,-2,-114,5,-4,-1,5,0
10125,-1,4,2,-128,-5,-7,1,2,0
10130,6,-13,-1,-78,2,-6,4,-5,0
10135,4,-8,-2,5,-6,0,-1,4,0
10140,-8,-15,3,-108,3,4,1,4,0
10145,4,12,-6,-128,-7,-3,-2,-9,0
10150,-6,16,-1,50,-4,15,0,3,0
10155,0,1,3,127,-2,4,-2,-5,0
10160,5,-12,-3,122,-12,-8,-4,-4,0
10165,-5,-16,0,-1,-4,7,-1,1,0
10170,0,-4,-4,-90,-3,-2,-8,0,0
10175,3,10,3,-92,-1,4,1,-2,0
10180,1,11,-2,-128,2,-6,2,1,0
10185,2,-1,3,-107,-1,-2,1,-3,0
10190,1,-1,0,-44,-1,-1,3,-4,0
10195,-2,-4,-5,-81,5,0,-3,1,0
10200,2,6,2,-25,2,3,-2,0,0
10205,-4,1,-5,78,-1,1,0,5,0
10210,-5,-11,-3,127,4,-6,-9,1,0
10215,0,-3,-4,127,-5,-1,-6,5,0
10220,-3,0,-2,116,-1,0,-3,-4,0
10225,-1,2,-6,79,3,2,-8,2,0
10230,-2,-3,3,86,-10,-7,-4,4,0
10235,-2,-4,-1,90,2,3,2,-3,0
10240,0,5,-1,58,2,2,2,1,0
10245,1,-3,2,34,-4,-1,-4,0,0
10250,1,6,0,38,1,-2,1,3,0
10255,-1,3,3,48,-3,-1,-3,-1,0
10260,-1,1,-4,24,-9,3,-3,-2,0
10265,1,-9,-1,9,0,1,-4,1,0
10270,7,-1,0,16,-2,-5,-2,-11,0
10275,-1,-7,-5,16,2,-7,-4,8,0
10280,-4,2,4,3,-4,-6,-6,-3,0
10285,-3,11,1,87,-2,9,3,0,0
10290,2,2,0,101,4,1,2,-4,0
10295,1,-1,-4,127,-2,4,2,0,0
10300,-2,-4,-4,127,-6,3,3,-1,0
10305,-2,-1,0,34,-6,-11,2,-1,0
10310,-2,-13,-1,-34,5,-2,-2,0,0
10315,2,-11,3,-81,-9,-13,1,2,0
10320,0,13,-4,-7,9,-3,-12,3,0
10325,-1,5,-3,-65,2,1,1,-2,0
10330,-1,-11,-2,35,3,5,2,5,0
10335,-2,-1,-1,-42,-1,-6,-7,-4,0
10340,1,2,0,-40,-4,0,-6,-5,0
10345,-3,-2,4,-92,-3,0,-2,-4,0
10350,-6,2,2,-97,-6,-2,-1,-2,0
10355,-3,-7,-6,95,-3,0,-5,-1,0
10360,-1,-6,1,-44,-1,0,2,-3,0
10365,-2,-2,0,75,4,5,0,-1,0
10370,-4,-2,-5,-76,-11,1,0,1,0
10375,-4,6,-1,-64,-7,0,-2,-7,0
10380,-3,5,1,20,2,-2,-3,3,0
10385,6,4,1,-18,-5,-10,-1,-1,0
10390,-1,0,-2,-10,-1,1,-3,10,0
10395,2,5,-5,-35,1,0,4,-3,0
10400,2,-9,-2,11,-4,-3,4,2,0
10405,0,-4,-1,65,-1,-6,0,1,0
10410,-3,8,-3,115,6,0,3,1,0
10415,-1,4,0,-99,0,2,1,-7,0
10420,1,-3,-3,-128,-4,-4,-1,-3,0
10425,-4,-3,-3,37,-4,-1,-5,1,0
10430,0,-1,-3,-62,-10,-9,-6,-4,0
10435,0,1,-1,8,-6,1,-4,-1,0
10440,-4,3,1,-4,5,-2,2,-4,0
10445,0,1,1,-60,-2,-1,-3,-4,0
10450,2,4,0,-125,-6,-1,-7,3,0
10455,-2,-8,2,48,2,7,2,-1,0
10460,0,-3,-3,26,-6,0,-4,0,0
10465,4,1,0,43,5,-4,-1,0,0
10470,-1,-4,-4,127,-6,-3,-3,-1,0
10475,-3,-6,-2,122,-3,5,-4,1,0
10480,-8,0,-2,90,-10,-6,1,-5,0
10485,-2,-12,1,-34,5,-3,4,-2,0
10490,-2,-3,1,120,6,-6,-3,1,0
10495,0,3,-3,-97,-1,-4,-3,1,0
10500,-2,-3,-1,-47,2,-1,2,-4,0
10505,-4,5,-4,-128,-7,-5,-7,0,0
10510,-4,1,1,11,5,3,1,0,0
10515,-7,0,-6,99,-2,0,1,-3,0
10520,-2,-1,0,22,-4,1,1,-1,0
10525,-6,3,-4,-88,-3,-2,0,-2,0
10530,0,4,-2,-128,-5,1,3,-2,0
10535,1,0,1,-93,1,0,4,-1,0
10540,6,4,4,2,-8,1,-6,-3,0
10545,0,-1,2,-27,-7,0,-3,0,0
10550,0,4,3,46,-1,0,-4,-9,0
10555,-4,-2,4,89,-2,-6,0,-3,0
10560,-1,-7,0,8,-1,-10,-4,-3,0
10565,-2,-6,-4,-58,3,9,2,-1,0
10570,-1,-1,0,-75,-2,-1,-1,-2,0
10575,0,-8,-9,19,0,-6,-2,2,0
10580,-2,-9,-2,-13,3,-5,-1,2,0
10585,-1,-2,1,-5,-2,-6,-3,5,0
10590,0,0,-7,-58,2,-2,4,-4,0
10595,-4,6,0,69,-1,0,-2,0,0
10600,-1,0,-8,64,2,-2,2,0,0
10605,-3,-11,-3,40,1,-1,-3,0,0
10610,1,-7,0,-39,-5,-3,-2,-1,0
10615,-1,1,-1,14,0,-3,-5,1,0
10620,2,4,3,-92,-5,0,-1,-2,0
10625,1,8,1,-4,1,6,3,1,0
10630,0,3,-4,-106,0,-5,-4,-2,0
10635,-1,5,1,-128,9,1,3,-1,0
10640,2,2,3,60,1,8,0,-2,0
10645,-6,8,1,-79,-6,-2,-2,-1,0
10650,-3,4,0,36,-9,-8,0,-2,0
10655,5,0,-1,-74,-4,-2,-3,-2,0
10660,0,-6,-5,-128,0,-4,2,5,0
10665,2,-5,-2,59,-5,-4,0,-7,0
10670,-3,-4,-4,-26,1,0,0,-6,0
10675,-5,-2,3,1,-3,2,-6,-5,0
10680,-1,0,-3,85,2,-3,-2,0,0
10685,2,1,0,127,-9,-6,-2,-7,0
10690,-3,-3,1,87,-1,-3,-1,2,0
10695,-2,-4,1,101,1,2,-3,-2,0
10700,-1,-5,1,101,2,6,0,-3,0
10705,1,-7,-3,127,3,2,-4,3,0
10710,3,-12,-2,127,-14,-5,-2,-9,0
10715,-3,-2,-5,74,1,-1,6,5,0
10720,0,-1,-7,65,-2,3,0,0,0
10725,1,-2,-2,-36,-7,-1,-4,-1,0
10730,-3,-2,-1,-84,-1,2,-4,-1,0
10735,-2,-2,-3,-122,2,-2,-1,2,0
10740,-4,5,0,-128,-6,-10,-6,-2,0
10745,1,3,4,-128,-1,-5,-3,1,0
10750,0,-6,2,-86,5,-4,-1,-1,0
10755,3,0,2,-105,-2,-3,-5,-4,0
10760,-1,-4,-4,-69,-6,1,0,-1,0
10765,-2,-5,-1,-17,0,2,1,4,0
10770,-5,-1,-2,10,-2,6,1,-1,0
10775,1,-1,0,-94,-3,-2,-2,-2,0
10780,-1,-3,-1,85,9,1,5,2,0
10785,-1,3,-1,112,5,-3,0,1,0
10790,0,2,-2,-39,2,2,2,3,0
10795,-6,0,-7,-97,7,-3,-4,-2,0
10800,-2,0,-2,21,2,0,-1,-3,0
10805,-5,-4,-1,90,5,-2,-7,-4,0
10810,-3,2,7,-37,-2,-6,0,-2,0
10815,4,1,2,-90,-2,-1,-1,4,0
10820,-1,-1,-1,35,-2,-3,-6,0,0
10825,-3,0,-3,87,0,0,0,-4,0
10830,2,-1,-2,-42,1,2,1,2,0
10835,5,-7,-4,-62,-6,-2,2,1,0
10840,-3,-5,1,41,-7,-4,4,0,0
10845,2,2,2,41,3,3,8,-2,0
10850,1,-7,-3,-47,0,0,-1,2,0
10855,-1,-2,-3,-34,-7,-3,-1,-8,0
10860,1,0,0,36,-2,1,-3,-2,0
10865,3,-1,-5,20,-2,0,-2,1,0
10870,0,4,5,-35,1,1,2,-2,0
10875,-2,-1,-3,-10,-1,-1,1,2,0
10880,0,-3,0,17,-3,-6,-7,1,0
10885,-1,-4,-1,15,0,-3,4,1,0
10890,0,-6,1,-22,3,-3,-3,5,0
10895,2,2,0,17,-2,5,-4,-1,0
10900,1,3,0,-114,4,7,3,2,0
10905,0,-6,0,-36,3,2,4,-5,0
10910,-2,0,-2,122,-5,-8,-5,-4,0
10915,-2,-4,2,127,-4,-13,-4,-8,0
10920,-1,4,-4,-13,-3,0,1,-4,0
10925,-3,10,0,-63,-5,6,2,6,0
10930,0,7,-3,37,0,7,0,2,0
10935,-6,-1,0,76,-1,-4,-4,-2,0
10940,-4,-8,3,-15,3,-1,-5,-1,0
10945,-1,-14,-1,-77,-1,-8,-2,-2,0
10950,-1,-1,0,32,8,3,7,3,0
10955,-1,8,-1,52,-1,8,3,-2,0
10960,4,8,-5,-34,11,1,4,4,0
10965,-4,3,-4,-65,4,4,1,2,0
10970,-4,0,-3,18,-3,-2,-1,-2,0
10975,-4,-9,4,42,5,-5,-1,5,0
10980,-1,-8,-2,-21,-1,-4,-1,1,0
10985,4,0,0,-38,-2,-1,-1,0,0
10990,-1,-3,-2,24,-8,1,-3,-3,0
10995,-4,-5,-2,25,1,1,-6,1,0
11000,1,-2,0,-18,-6,-8,-6,0,0
11005,2,3,-2,-24,0,2,-1,3,0
11010,-2,4,-1,13,1,-2,-2,2,0
11015,-2,8,1,17,-2,1,0,-7,0
11020,2,10,0,-6,1,0,0,-5,0
11025,-1,8,4,-21,-5,-5,-4,-2,0
11030,-2,1,-2,4,3,4,1,0,0
11035,0,-2,-3,17,2,2,-1,3,0
11040,-3,-3,-8,-6,-1,0,1,-3,0
11045,0,-8,-7,-21,-2,-2,-3,-3,0
11050,-2,-11,2,9,8,1,-2,-5,0
11055,-2,1,-1,7,-6,-4,-6,-1,0
11060,1,-7,-1,-6,-2,-6,-2,0,0
11065,-3,-7,1,-10,3,4,-2,-1,0
11070,2,-5,-3,-3,0,1,-4,-1,0
11075,0,-7,-5,9,-1,-9,1,-7,0
11080,-7,3,3,-2,-5,-1,0,1,0
11085,4,4,0,-5,4,-1,0,-5,0
11090,5,3,-1,6,-3,-1,-4,-1,0
11095,-2,7,2,3,-5,6,2,-1,0
11100,2,6,-3,-3,0,-3,-1,-1,0
11105,-5,-4,-8,-10,-2,-10,-2,-1,0
11110,-3,-6,3,4,1,-4,-2,1,0
11115,5,-2,1,4,8,1,2,2,0
11120,-1,-4,0,-2,-5,5,0,1,0
11125,-2,-3,1,-2,-7,4,-2,1,0
11130,-1,3,-2,17,-2,-6,2,-5,0
11135,-2,1,11,-23,4,17,-3,-3,0
11140,-7,-46,3,27,11,-13,2,-4,0
11145,0,-10,5,17,3,-16,3,-2,0
11150,6,27,-3,-24,-20,-3,-9,4,0
11155,0,30,1,49,-7,5,-1,-8,0
11160,-3,21,-4,90,10,20,6,2,0
11165,-5,3,-5,105,1,-6,-10,-5,0
11170,-10,6,0,-41,-4,-7,-2,-6,0
11175,1,-24,-11,-89,-7,-12,1,0,0
11180,-1,-14,1,46,-9,12,2,-5,0
11185,1,-13,-9,102,2,5,4,-5,0
11190,1,8,4,-71,-3,-3,1,8,0
11195,-2,-4,-5,-75,0,-10,-5,1,0
11200,-2,-10,-5,31,7,-10,-5,-8,0
11205,4,13,5,61,2,7,-7,2,0
11210,-9,7,-2,-42,2,3,-1,6,0
11215,-1,4,-5,-80,2,-3,0,-2,0
11220,5,2,-2,55,5,-8,-2,-1,0
11225,2,-1,1,66,-8,-4,-2,2,0
11230,-2,-7,-2,-26,-2,0,-4,-9,0
11235,3,-14,0,-48,-4,-1,-7,2,0
11240,2,-2,-2,30,-8,-9,-8,-4,0
11245,-5,-2,-1,33,-7,3,-4,-6,0
11250,4,-6,1,-38,0,-3,1,-5,0
11255,-3,-2,2,-30,5,5,3,1,0
11260,0,11,1,18,-1,1,-1,-6,0
11265,-9,0,-1,15,0,2,1,4,0
11270,-9,3,0,-15,2,-1,1,-3,0
11275,-3,-3,-1,-24,0,-3,-3,-5,0
11280,7,-4,-3,14,-9,-3,-5,-1,0
11285,3,-2,0,15,-6,-3,-1,-6,0
11290,3,-20,-5,-24,1,3,1,-2,0
11295,-1,-7,0,-31,-2,-1,-12,7,0
11300,-1,0,-1,12,-4,-7,8,0,0
11305,-12,3,-10,17,2,-1,-2,6,0
11310,-2,-9,-4,-13,5,0,8,-8,0
11315,-1,2,-4,-31,6,3,4,-4,0
11320,-6,-1,3,15,-2,-3,-17,9,0
11325,3,5,-2,13,-6,-3,-5,-10,0
11330,5,-4,-3,-13,2,5,1,-3,0
11335,1,-9,-5,-13,-3,-8,-16,10,0
11340,4,4,-2,4,-3,-4,2,-9,0
11345,3,0,2,-8,0,-8,1,-2,0
11350,3,5,-2,-9,-3,4,-13,10,0
11355,1,9,0,1,-2,0,15,-6,0
11360,-7,4,3,4,-6,-1,-5,3,0
11365,5,-10,6,17,-2,-3,3,-4,0
11370,3,-7,1,14,0,-4,2,-6,0
11375,1,-4,1,-14,-3,-4,-1,2,0
11380,-5,1,-6,13,3,5,-1,1,0
11385,1,2,-1,23,1,5,-2,-1,0
11390,-2,2,5,71,-4,0,-8,7,0
11395,-2,-7,2,-3,-3,-1,5,-6,0
11400,-7,-2,-3,14,-3,-6,-5,-2,0
11405,-1,-5,-1,-6,-1,1,-1,-1,0
11410,-4,-4,-4,127,0,0,0,-2,0
11415,4,5,0,33,-5,-4,0,-4,0
11420,-1,-10,-2,-128,-3,-5,-8,5,0
11425,-1,-6,-4,-128,1,-2,-2,0,0
11430,0,-5,-2,-82,1,-7,-7,-2,0
11435,0,-5,-1,2,-1,-4,0,-4,0
11440,-2,-4,-1,-128,-1,6,2,-1,0
11445,1,3,-3,-98,-3,-1,3,-1,0
11450,-2,1,1,59,2,8,2,6,0
11455,2,10,0,127,-2,-2,-4,-4,0
11460,3,3,0,43,0,-18,4,-2,0
11465,-3,1,-2,29,7,4,-2,-1,0
11470,5,-2,2,100,1,5,-2,-2,0
11475,7,2,-1,127,-5,5,2,2,0
11480,1,2,0,99,6,3,2,-1,0
11485,-5,-2,-1,86,-8,-5,-8,-1,0
11490,-2,-3,1,-65,-5,-2,-3,-8,0
11495,-9,-1,2,-66,0,-5,-3,-4,0
11500,3,-2,-4,61,2,3,-10,-3,0
11505,-4,-6,1,-31,1,-4,-14,12,0
11510,-1,0,-6,-39,-4,-1,15,-12,0
11515,-6,-4,-3,-24,-6,3,3,0,0
11520,-2,-11,-3,27,-8,1,-4,1,0
11525,0,9,2,105,-4,-3,-3,-3,0
11530,-4,9,0,-26,-8,-13,-3,-3,0
11535,-1,-5,1,-68,2,-2,1,3,0
11540,-7,-4,-2,62,-8,-5,-4,-9,0
11545,-2,-2,-5,52,-9,0,-4,-4,0
11550,-2,-2,1,-47,5,5,2,3,0
11555,2,-5,-4,-14,-5,2,-5,-1,0
11560,2,0,1,32,-5,0,-1,-3,0
11565,-5,-6,-7,42,-4,-1,4,-4,0
11570,-6,2,-3,-31,-8,-7,-4,-1,0
11575,-4,6,1,-4,9,3,-4,-5,0
11580,-2,6,-2,43,-2,1,-1,0,0
11585,2,1,1,-8,-1,-4,-3,-5,0
11590,-6,-8,1,-23,0,-1,1,-1,0
11595,-5,-11,-4,-17,0,-1,0,1,0
11600,-1,6,-3,12,-1,4,1,-3,0
11605,0,6,-2,-11,-4,-2,6,0,0
11610,1,-3,0,-16,1,-7,2,2,0
11615,0,-7,3,4,-10,-7,1,-3,0
11620,-1,-7,-4,-72,7,-10,-7,3,0
11625,-2,-10,-5,-21,2,-4,-3,2,0
11630,-3,1,-1,127,4,2,-4,5,0
11635,-1,2,-1,100,-1,-3,1,3,0
11640,4,3,4,85,-15,2,-1,3,0
11645,-1,4,2,-5,-1,-2,0,-8,0
11650,-2,2,-5,127,-10,-6,-6,-8,0
11655,0,11,-5,127,-1,7,-5,3,0
11660,-5,-2,1,29,4,10,-2,1,0
11665,0,-5,-1,-128,1,7,-1,-1,0
11670,3,-7,2,13,-3,-9,0,2,0
11675,1,-11,0,-31,-5,-5,2,-2,0
11680,-1,1,-4,-128,-1,-1,0,1,0
11685,3,9,-2,-128,-1,0,-3,-3,0
11690,4,12,0,-103,-1,-1,-6,-5,0
11695,-2,15,2,3,3,-7,2,-2,0
11700,-4,9,-7,-78,2,0,0,-1,0
11705,-3,4,-1,-29,-1,0,1,1,0
11710,2,0,2,-22,-3,9,1,2,0
11715,-4,-2,-3,-23,-8,1,-5,-3,0
11720,0,-1,-4,-75,-6,-8,-3,-1,0
11725,3,1,4,-71,0,-8,5,2,0
11730,-3,-6,1,33,1,-1,2,-2,0
11735,0,-12,0,-65,-7,-5,0,1,0
11740,-4,-12,5,-124,2,4,-1,0,0
11745,2,-10,-3,-128,-1,3,-5,6,0
11750,1,-2,-1,-108,-4,0,-2,4,0
11755,0,0,4,-100,6,-12,4,0,0
11760,6,-13,-1,19,7,-12,-7,-1,0
11765,-3,-4,2,-7,-7,-3,-3,-5,0
11770,3,-3,-2,93,-8,5,-6,-4,0
11775,0,3,0,117,-7,0,-12,-5,0
11780,3,7,-1,85,-11,-3,1,-1,0
11785,-2,1,3,107,-4,1,2,-3,0
11790,-2,9,3,-42,4,1,-4,4,0
11795,-4,11,0,-116,4,14,-1,-5,0
11800,0,16,-1,-67,-5,-1,3,0,0
11805,1,5,1,44,-6,-3,8,-4,0
11810,1,-8,-5,-52,2,1,9,2,0
11815,-9,-7,-2,39,4,0,-5,2,0
11820,-3,-2,-2,-81,-5,2,3,-3,0
11825,1,-5,0,-42,-5,-5,-7,2,0
11830,-6,-4,-5,-6,-2,-3,-2,-7,0
11835,2,-4,-5,72,-2,-5,2,0,0
11840,-3,-13,0,76,1,2,0,1,0
11845,1,-8,1,87,4,-3,-1,0,0
11850,-2,-5,-1,92,0,-1,-3,2,0
11855,1,-1,-1,87,-10,-6,-5,10,0
11860,-1,-4,0,56,-1,1,1,-4,0
11865,-4,2,-2,26,-1,7,-5,-1,0
11870,3,6,5,52,-7,-3,3,-2,0
11875,-1,3,-5,42,-6,0,-2,-5,0
11880,-2,-3,-1,6,-9,1,-7,1,0
11885,0,-7,-1,13,-1,1,-4,-1,0
11890,3,-6,-3,25,-11,-5,3,-6,0
11895,-6,-9,-1,18,1,-10,-5,0,0
11900,0,-6,-2,-1,-4,-5,-5,2,0
11905,-3,-7,-3,6,-1,3,-3,-1,0
11910,-3,-2,0,14,0,5,4,-11,0
11915,7,3,0,102,-3,-11,-5,-5,0
11920,-4,2,2,108,-7,-9,5,-5,0
11925,-4,13,0,126,2,-4,1,-1,0
11930,-3,2,-1,78,4,3,4,3,0
11935,-1,-3,3,-7,3,1,3,0,0
11940,-4,6,1,23,2,-6,1,1,0
11945,0,1,-2,80,-6,-1,3,-3,0
11950,-2,-1,-4,127,0,-1,-2,0,0
11955,2,2,-1,23,1,8,6,-6,0
11960,0,-1,-2,-86,1,-4,-2,-1,0
11965,-3,-6,-3,-42,0,-5,-6,-4,0
11970,-1,-8,-3,-128,-4,0,-9,5,0
11975,2,1,-5,-112,2,5,-3,-3,0
11980,0,4,1,-77,7,3,-1,-10,0
11985,0,-3,1,-91,-3,0,-5,-9,0
11990,-3,-4,-1,-114,4,-5,0,4,0
11995,-4,-15,-4,105,-5,8,3,-1,0
12000,0,-13,0,121,0,-4,-3,0,0
12005,4,-2,4,32,2,-4,0,-2,0
12010,5,-6,-2,-83,3,4,-3,4,0
12015,-3,1,0,-102,1,3,-2,3,0
12020,1,-1,-3,70,-3,-7,-6,-3,0
12025,-2,-6,-1,50,-3,-1,-6,1,0
12030,-3,6,1,-67,1,-2,-4,-9,0
12035,1,7,2,-84,-3,-2,-5,0,0
12040,-6,0,-2,73,-2,3,-1,-2,0
12045,3,2,3,-2,0,-4,0,2,0
12050,3,0,-2,-35,-1,-2,4,-3,0
12055,1,-1,-4,-59,9,1,5,3,0
12060,3,-2,-4,27,-4,2,0,1,0
12065,-2,4,-5,15,-3,-2,-2,0,0
12070,-2,3,0,-36,-7,-8,-4,-5,0
12075,-2,0,2,-37,6,2,-3,-1,0
12080,1,-8,2,29,7,10,1,-1,0
12085,-2,-5,-8,-7,-1,4,8,-2,0
12090,-1,-5,-5,-25,-1,4,-2,3,0
12095,-2,-1,-3,-15,-4,-6,-5,2,0
12100,2,0,-3,21,-8,-1,0,-3,0
12105,-1,-2,-2,-10,0,4,4,0,0
12110,0,-6,-2,-22,-6,-4,0,-5,0
12115,-3,-11,-1,-1,-2,-5,-3,-2,0
12120,-2,-7,2,11,-4,-3,-2,6,0
12125,-3,-5,3,16,0,-7,-8,-2,0
12130,-2,-3,-1,-18,-5,-1,-5,3,0
12135,-2,-10,-1,14,-5,-2,-1,-5,0
12140,0,25,-6,13,0,-7,-4,-2,0
12145,-6,10,-8,15,-4,7,4,0,0
12150,-1,9,2,-9,-3,2,-7,-4,0
12155,0,6,4,-13,-4,3,2,-3,0
12160,-6,-3,0,8,4,1,3,0,0
12165,1,-2,4,-2,-2,4,4,-2,0
12170,-5,-6,6,-6,4,6,5,0,0
12175,-2,-8,0,13,-6,9,2,-1,0
12180,1,-6,0,2,0,8,1,-2,0
12185,-1,5,0,-19,5,1,-1,1,0
12190,-4,-1,-4,-8,-6,-1,-4,-1,0
12195,-3,1,-6,17,-7,-5,-2,-2,0
12200,-4,0,-4,7,-5,-2,-4,-3,0
12205,2,5,-6,-19,-4,-13,-9,0,0
12210,3,2,-2,-4,-4,-10,-5,-3,0
12215,0,-7,-4,0,-3,-6,-6,1,0
12220,2,-14,-3,6,-5,-5,-4,2,0
12225,0,-15,5,-5,-6,-2,3,-2,0
12230,0,-4,-5,-3,-5,-6,1,3,0
12235,4,9,2,22,-3,-3,-5,-3,0
12240,-2,5,4,-1,2,-1,2,2,0
12245,4,6,2,-7,0,3,-2,3,0
12250,-4,7,-2,-8,1,7,7,-1,0
12255,1,10,-2,-9,-3,-2,0,-2,0
12260,-1,1,-3,6,-2,0,2,-4,0
12265,-1,-9,-4,-35,0,7,2,-1,0
12270,-4,-6,0,2,1,2,-1,-1,0
12275,-7,-9,-5,25,3,4,2,-1,0
12280,-1,-3,-2,5,0,-6,1,-2,0
12285,0,-5,-4,12,3,-6,-1,-5,0
12290,-1,-10,-4,-2,6,-3,-1,-3,0
12295,1,-1,-4,38,-5,-12,-9,-7,0
12300,4,0,2,1,-4,-5,-2,4,0
12305,-3,3,-2,-5,-7,-4,-2,0,0
12310,5,0,-3,7,-7,-2,-2,-2,0
12315,-2,-9,-2,31,-1,-4,-6,-1,0
12320,-3,-1,-2,6,-2,-2,-7,-3,0
12325,-2,7,-2,6,-3,1,-3,1,0
12330,0,7,2,16,-2,-1,-8,3,0
12335,1,-8,-3,3,2,3,0,1,0
12340,1,-8,-3,2,-3,3,-5,-3,0
12345,-4,-5,-1,7,-1,-9,0,1,0
12350,-3,4,-1,1,3,-4,-3,-3,0
12355,3,7,2,-56,1,9,-4,1,0
12360,0,-24,-1,-4,-3,5,-7,-6,0
12365,2,-17,-4,-110,4,-2,4,-2,0
12370,-2,22,-6,-18,3,5,19,4,0
12375,-5,22,-2,-109,-4,-8,16,4,0
12380,-10,7,-2,-128,1,-7,-4,2,0
12385,-7,-12,-2,-67,-8,-3,-8,1,0
12390,-1,-29,2,90,-9,-20,-11,-4,0
12395,2,-22,-2,92,-3,-14,-4,0,0
12400,-7,0,-6,1,-1,-6,-2,2,0
12405,0,-2,-2,61,-3,0,-3,1,0
12410,-1,-15,-4,127,-5,4,-8,-1,0
12415,-3,4,1,127,-3,4,2,-5,0
12420,5,8,-2,75,-3,7,1,-2,0
12425,5,21,0,-112,5,6,6,-4,0
12430,5,29,0,-61,-2,12,-1,-2,0
12435,4,10,4,-77,3,2,-1,2,0
12440,4,5,4,-75,-1,10,6,-1,0
12445,-4,5,9,11,2,2,-1,2,0
12450,2,-1,-3,36,-1,5,8,4,0
12455,3,-4,-3,90,11,0,1,1,0
12460,-3,16,-3,55,4,-8,2,-3,0
12465,-10,-1,-2,-45,3,1,-3,-4,0
12470,-3,-23,-7,-89,0,-10,-6,-3,0
12475,-3,-24,-6,-110,-14,-7,-8,-7,0
12480,0,-18,-3,-15,-14,-10,-3,-2,0
12485,0,-1,-2,-64,-5,-12,-7,-3,0
12490,-2,-7,3,-57,2,-7,-3,1,0
12495,-2,-4,2,-13,6,3,2,0,0
12500,-1,1,6,38,10,7,-3,-2,0
12505,6,8,-1,-9,-12,-8,-8,2,0
12510,-2,3,-1,-44,-6,-3,-1,-4,0
12515,-2,-1,3,-51,-6,2,-5,1,0
12520,-4,0,-2,-88,-2,-1,5,-3,0
12525,-4,-4,-1,102,6,6,6,0,0
12530,3,5,6,117,6,5,10,0,0
12535,-1,2,-5,123,2,2,4,1,0
12540,-1,5,3,78,2,3,3,-4,0
12545,4,8,-1,88,4,6,-1,0,0
12550,1,19,-2,127,-1,4,-8,-2,0
12555,-5,11,0,126,-4,2,-3,2,0
12560,4,-6,2,76,-10,-2,-11,-2,0
12565,-4,-14,-1,13,2,-7,-4,-4,0
12570,-2,-14,1,-75,2,-4,-3,2,0
12575,1,-7,-2,-116,-7,-3,-2,1,0
12580,-5,-3,-5,-128,-3,-7,-2,5,0
12585,2,-3,-2,-123,0,0,0,2,0
12590,1,-4,-1,-76,3,-1,0,-1,0
12595,2,2,1,-119,2,-2,3,-2,0
12600,-1,-10,-4,-128,1,-8,-4,-1,0
12605,-3,-8,1,-71,-6,-6,1,-3,0
12610,-3,-5,0,-36,-4,-8,-1,1,0
12615,-6,-11,-2,-46,-7,-7,-5,-4,0
12620,-2,-10,-2,-83,6,-3,-1,-4,0
12625,1,-3,-3,-23,-2,-5,-4,-2,0
12630,0,-6,-2,-3,-6,0,-9,1,0
12635,0,-5,3,-22,0,-7,-4,-4,0
12640,-2,-1,-2,-40,0,-5,0,0,0
12645,2,-1,-2,-12,-6,2,2,-1,0
12650,0,3,3,9,3,0,6,3,0
12655,-1,-1,-2,-6,-4,-2,6,4,0
12660,1,2,-4,-27,-7,0,-2,1,0
12665,-4,8,-1,1,-4,3,0,1,0
12670,-5,0,-5,7,-6,-4,-5,-6,0
12675,-3,-2,-4,-1,2,2,-9,-4,0
12680,2,-1,1,-18,1,3,2,1,0
12685,-1,-2,-6,-2,4,2,5,3,0
12690,1,16,3,-55,0,1,-1,-2,0
12695,-2,22,-1,-115,0,6,-3,0,0
12700,-1,19,0,-128,-2,6,-1,-1,0
12705,3,6,-1,-115,-12,-1,-7,-9,0
12710,-2,-11,2,-61,-6,0,0,0,0
12715,5,-18,-1,-4,-5,-8,1,-5,0
12720,0,-18,-7,-80,4,-2,-1,-4,0
12725,0,-10,-7,-35,0,-8,-2,-5,0
12730,-5,-10,-1,33,-4,-11,-6,-3,0
12735,-5,1,-4,-73,-2,-8,-3,-4,0
12740,1,2,-3,-109,-7,-1,-6,1,0
12745,-1,-2,-2,-39,5,9,-2,2,0
12750,-4,-1,-5,42,-5,1,0,-7,0
12755,-2,-1,-3,127,-10,-3,-4,-8,0
12760,-3,-7,1,127,-6,0,5,1,0
12765,-3,-9,-3,119,-4,-3,2,0,0
12770,-2,-11,-3,117,-7,-6,2,2,0
12775,-3,-14,-3,120,-4,-9,5,-3,0
12780,-2,-2,1,67,4,-8,3,1,0
12785,-2,-1,0,64,-5,-1,-3,1,0
12790,3,8,-1,44,2,7,-4,-1,0
12795,-1,13,3,38,-4,4,-3,-1,0
12800,0,14,1,42,-10,2,-6,-5,0
12805,2,3,1,44,-5,-4,-2,-6,0
12810,-2,0,1,23,4,1,1,-1,0
12815,-4,-3,1,1,1,1,-5,4,0
12820,-1,1,-1,127,-3,0,0,-1,0
12825,0,-7,2,121,-1,-1,5,0,0
12830,0,-1,-3,-21,-4,-3,-2,-4,0
12835,-3,-2,-8,22,-4,-6,-5,2,0
12840,2,7,3,71,0,-3,3,-1,0
12845,-4,7,-1,35,-4,-3,-3,1,0
12850,1,5,0,-83,-4,5,-4,1,0
12855,0,2,3,76,-1,1,3,4,0
12860,-1,-8,-2,37,-8,-8,-2,-1,0
12865,4,-5,0,-52,1,4,-2,-2,0
12870,-3,-5,-4,114,5,-4,-2,-1,0
12875,2,-8,-6,-72,5,6,-2,2,0
12880,1,-2,0,5,0,2,0,-4,0
12885,-1,2,6,-45,5,-4,-5,-1,0
12890,-5,-8,-1,-94,9,-3,0,1,0
12895,3,4,0,72,3,4,2,-2,0
12900,-5,8,3,41,3,4,1,3,0
12905,-2,-4,-2,-89,-4,-2,-1,-2,0
12910,1,-10,-4,-15,-1,-4,3,-2,0
12915,0,-10,-1,-128,-3,-8,0,-4,0
12920,-1,-6,-5,-128,-5,-3,-4,0,0
12925,-2,3,1,-11,8,1,-5,5,0
12930,3,9,-4,-107,-8,-2,0,-2,0
12935,1,5,2,-52,-7,2,1,-9,0
12940,3,5,-6,-64,-2,-2,2,-5,0
12945,1,-3,-2,-66,-3,-3,4,0,0
12950,4,-4,-3,-86,0,2,1,-3,0
12955,1,-2,-3,32,1,0,0,-1,0
12960,1,-5,1,86,-4,1,-1,-4,0
12965,-2,3,0,-46,-7,0,2,-1,0
12970,-1,-1,4,-50,-3,-5,-5,-4,0
12975,-2,-3,4,50,4,4,4,3,0
12980,-4,-6,0,86,9,0,0,1,0
12985,-1,0,-2,47,2,5,4,-2,0
12990,-6,-2,-4,5,-5,0,0,3,0
12995,-1,-2,-1,10,2,-7,3,-1,0
13000,1,-3,-4,39,-5,0,-6,3,0
13005,0,-2,-3,-1,-4,-1,1,-4,0
13010,1,3,-2,-57,0,-2,-2,-2,0
13015,-5,-5,-6,-13,-4,-3,-9,-1,0
13020,-2,-5,-6,53,2,0,1,-3,0
13025,2,-2,-5,-16,-6,2,-1,0,0
13030,-1,5,-3,-30,-4,2,-2,-4,0
13035,0,4,2,15,-4,-2,1,-1,0
13040,-1,1,-2,51,1,5,1,2,0
13045,0,2,-2,-14,-8,-7,-2,0,0
13050,0,-3,3,-41,-7,-3,-4,0,0
13055,-1,3,-3,-10,-2,0,-3,2,0
13060,-2,-3,-1,15,-7,-6,-2,1,0
13065,-2,-5,0,3,6,-1,0,-1,0
13070,1,-2,-6,-24,4,-1,3,2,0
13075,-1,-2,-3,23,-2,-1,-4,-5,0
13080,1,-7,-2,11,0,-2,3,7,0
13085,3,-3,-1,-22,-9,-3,2,0,0
13090,2,-15,-6,-12,-8,3,3,-2,0
13095,1,2,-5,-9,-2,-3,-7,5,0
13100,-5,-1,1,11,-4,-2,-2,-1,0
13105,-3,3,3,-6,4,-6,-1,-1,0
13110,-5,1,-6,5,-2,-4,1,0,0
13115,1,-3,4,-8,2,-3,0,2,0
13120,2,-5,-2,19,2,1,-1,-1,0
13125,-3,0,0,-5,1,-1,-1,0,0
13130,-1,3,1,-11,-7,-1,-4,-8,0
13135,2,-2,-2,4,-5,0,-1,0,0
13140,3,5,-1,-7,7,-1,4,0,0
13145,-1,1,-8,-9,1,8,-2,1,0
13150,2,8,3,-18,-2,5,1,1,0
13155,-7,-5,-6,21,1,2,2,-8,0
13160,-6,-3,2,6,0,-2,1,-2,0
13165,-3,-3,1,-9,6,3,-4,-1,0
13170,-1,-5,-3,-7,5,-3,0,0,0
13175,-1,-2,0,21,1,2,0,0,0
13180,-1,-4,0,6,-7,-3,-6,-1,0
13185,-2,-6,-6,-1,-6,-6,-2,-1,0
13190,-1,-6,2,-10,-5,-3,-3,5,0
13195,3,0,1,-13,-3,1,4,-3,0
13200,-2,-5,-1,7,-3,-5,-1,-2,0
13205,-3,1,-5,27,-7,-10,-2,-3,0
13210,0,4,1,7,0,-8,-3,-6,0
13215,-6,-3,-1,-1,5,-5,2,0,0
13220,-3,2,0,9,-4,-4,-5,-6,0
13225,-1,2,1,12,-1,-4,-6,-5,0
13230,0,-1,-4,-1,-6,-2,-1,-5,0
13235,1,-5,-2,19,-2,-5,-5,-3,0
13240,0,5,1,8,1,-5,1,-5,0
13245,-5,-11,2,20,3,-3,4,1,0
13250,-2,-10,-2,-7,-4,-4,-5,0,0
13255,0,-3,1,-31,1,-3,-2,5,0
13260,0,-3,-4,9,0,1,0,3,0
13265,1,1,-4,9,-4,-2,-1,0,0
13270,-2,6,-2,-1,0,2,0,2,0
13275,0,3,-3,47,-2,1,-4,-2,0
13280,-1,2,6,11,0,3,2,4,0
13285,-4,-2,-1,50,-5,3,0,-2,0
13290,-5,0,1,-6,-2,-1,1,3,0
13295,-1,-1,-1,-93,1,2,0,-1,0
13300,-4,-5,-3,-28,2,-1,-1,3,0
13305,-4,-7,-4,127,-3,7,-1,1,0
13310,1,7,2,127,-4,-3,-6,-1,0
13315,-2,7,1,29,1,-7,-4,-2,0
13320,0,11,0,20,-9,-1,-3,-5,0
13325,1,9,-1,-72,2,3,-6,2,0
13330,-1,1,-1,1,-5,1,3,-5,0
13335,-4,-14,-2,60,0,-5,-7,1,0
13340,-2,15,-3,16,-6,14,2,-3,0
13345,-1,30,3,34,14,28,-3,-2,0
13350,5,40,-7,-22,2,23,26,0,0
13355,2,-14,3,-52,12,-4,21,-4,0
13360,-3,-38,6,-87,-3,-2,10,-4,0
13365,-3,-65,-2,-61,-4,-25,-9,3,0
13370,0,-13,-4,20,-9,-4,-8,0,0
13375,-2,15,-11,34,-8,-16,-13,0,0
13380,-2,9,-5,-92,-12,-21,-15,-1,0
13385,2,4,4,78,-1,-5,-8,-3,0
13390,-4,-22,1,-65,3,-5,-11,-1,0
13395,-1,-2,-1,-75,-8,0,-5,-4,0
13400,3,9,0,19,-4,4,5,2,0
13405,6,17,0,-107,-8,2,14,-4,0
13410,-1,-24,-5,1,-8,-5,4,-1,0
13415,1,13,-2,-14,-10,-6,4,1,0
13420,0,17,-2,-46,14,18,6,4,0
13425,0,15,-3,52,6,5,-2,1,0
13430,0,3,-1,127,7,5,-8,-4,0
13435,-7,-18,-2,101,-3,6,-10,-2,0
13440,1,-1,3,84,-5,-4,-1,-7,0
13445,1,22,4,-67,-8,11,4,4,0
13450,-4,22,4,-71,10,12,-10,0,0
13455,-2,0,5,-65,-5,11,14,-2,0
13460,6,-13,5,-42,1,-7,2,-3,0
13465,-5,-15,0,85,0,-2,10,-6,0
13470,-2,0,8,102,-8,-13,3,2,0
13475,12,-11,6,10,-5,8,-8,-3,0
13480,1,4,-7,-34,-1,6,-3,1,0
13485,-2,-4,-5,3,-2,-14,-13,-4,0
13490,-3,-6,-6,16,8,-21,-11,2,0
13495,-7,-7,-10,-13,-1,-17,-8,-1,0
13500,-11,-6,-19,-66,5,-22,-13,-4,0
13505,-6,-3,-24,-4,0,-15,-4,-3,0
13510,-5,-7,-26,22,-4,-4,-6,-9,0
13515,-6,-12,-10,-23,-7,5,1,-3,0
13520,-5,-18,0,-48,5,3,-8,1,0
13525,-2,-20,12,-7,-3,13,5,2,0
13530,2,-17,15,29,3,14,7,0,0
13535,0,-1,15,-18,-5,6,6,1,0
13540,2,15,16,-41,-4,4,7,-3,0
13545,10,19,12,2,-2,-2,5,1,0
13550,0,6,6,18,3,-8,7,-3,0
13555,3,19,5,-14,6,-4,-4,1,0
13560,4,14,-1,-30,1,-2,-3,4,0
13565,0,1,-1,-1,-5,-10,-8,-4,0
13570,-10,-1,-1,16,-3,-8,-5,-2,0
13575,-8,3,-7,-8,0,-2,-4,1,0
13580,-5,-11,-2,-18,-3,3,3,1,0
13585,-4,-16,3,-5,-5,3,-1,-3,0
13590,1,5,4,9,-2,0,-3,0,0
13595,-2,13,1,-3,-3,7,1,0,0
13600,3,10,-1,-10,-2,6,4,-5,0
13605,-4,7,-1,-2,-4,-4,-12,8,0
13610,-1,-6,-1,9,-2,-1,4,-6,0
13615,-2,-17,-9,-5,2,-5,0,2,0
13620,0,-28,-8,-17,-7,-5,-2,-4,0
13625,-4,-12,-2,-2,-4,-2,-1,-8,0
13630,-4,-2,0,13,10,4,-10,-1,0
13635,-1,9,-5,-7,-4,-4,-3,0,0
13640,-5,4,1,-8,-3,3,9,-10,0
13645,1,-5,1,7,-2,-12,7,3,0
13650,6,-7,3,1,2,-6,-1,1,0
13655,0,-2,1,-2,-3,-5,8,3,0
13660,11,-10,-4,0,-1,-17,4,3,0
13665,12,-4,-9,2,5,6,-1,-9,0
13670,-6,15,-8,-9,9,4,-12,-2,0
13675,-5,18,-5,-1,1,-7,-12,0,0
13680,-7,-1,0,-21,-7,5,-12,-1,0
13685,-10,-13,4,4,-7,-2,-3,4,0
13690,7,-17,2,5,6,6,-9,1,0
13695,-12,10,0,7,4,3,8,-7,0
13700,-19,1,5,-2,-1,3,-2,7,0
13705,-11,3,4,-11,1,9,1,7,0
13710,1,12,15,-2,-12,-2,15,4,0
13715,-2,21,3,11,0,-5,11,-3,0
13720,-7,8,-5,13,-1,2,3,10,0
13725,23,-10,-13,16,0,-5,6,-24,0
13730,3,6,-4,-5,-4,-20,-2,-4,0
13735,11,-1,-10,1,-1,-8,-13,-4,0
13740,3,-14,-7,7,1,10,-10,-11,0
13745,0,1,-19,7,3,-5,0,1,0
13750,5,30,-66,7,-7,-12,1,-3,0
13755,21,11,67,-92,17,-30,1,-10,0
13760,-10,-13,5,15,0,-8,-21,0,0
13765,-15,30,3,11,8,53,-53,8,0
13770,8,24,54,-28,-7,40,33,-31,0
13775,0,72,2,-51,-1,-13,-1,31,0
13780,-13,60,13,-5,-31,64,24,-20,0
13785,14,-20,-26,-2,0,-36,19,14,0
13790,-10,-54,-30,57,5,-8,12,11,0
13795,-13,-71,-23,32,-7,1,7,1,0
13800,8,-17,-27,35,21,-71,3,12,0
13805,-19,-13,1,9,-5,-26,5,3,0
13810,-10,-4,-5,-8,-5,-2,-20,8,0
13815,2,-36,1,17,-4,11,-17,-32,0
13820,12,7,0,-32,-7,-17,-23,-25,0
13825,0,-15,15,-43,-5,8,-21,-17,0
13830,-3,-40,17,-24,10,11,-19,13,0
13835,-9,30,4,14,2,32,-2,3,0
13840,13,3,-16,-8,-5,9,14,11,0
13845,-1,15,3,19,-11,-8,29,5,0
13850,-19,4,16,-5,-5,-15,15,0,0
13855,-10,3,-21,36,-6,15,17,-6,0
13860,-1,11,5,-14,-2,13,9,4,0
13865,-2,11,14,-18,2,-3,15,-6,0
13870,5,5,-1,15,-5,-4,-15,-10,0
13875,-4,-19,-10,10,-13,11,-10,-12,0
13880,1,-14,-3,-25,6,-8,-9,0,0
13885,7,10,11,-19,5,4,-9,2,0
13890,8,-7,1,-16,7,10,-8,1,0
13895,1,-14,-16,2,0,1,-6,-2,0
13900,4,-16,2,-9,-6,-11,-9,5,0
13905,0,-13,-7,-4,-2,-6,-4,-1,0
13910,1,0,-1,6,-1,2,-10,-3,0
13915,10,-18,-3,4,-2,-3,3,-8,0
13920,5,-15,-7,2,-4,3,-6,2,0
13925,-5,-4,-3,1,-5,-6,-7,-6,0
13930,-13,-18,-1,-7,-12,-14,-8,-4,0
13935,-12,2,-1,-7,1,-3,-9,13,0
13940,-13,8,2,-8,5,-7,1,4,0
13945,-9,8,-4,-1,6,2,7,-6,0
13950,-4,0,-1,-1,7,-10,-1,-5,0
13955,4,0,1,8,-5,-7,2,0,0
13960,1,12,0,14,4,7,1,3,0
13965,-4,6,4,14,-4,11,2,1,0
13970,2,1,2,9,-3,-5,6,3,0
13975,7,-11,-8,-5,-1,-3,2,0,0
13980,9,-7,1,0,-5,-3,1,-4,0
13985,-4,-12,2,3,-4,-7,1,0,0
13990,-3,-2,-2,4,0,-8,0,-4,0
13995,-3,-3,2,3,0,-6,2,8,0
14000,-6,3,0,4,0,-5,8,-4,0
14005,-10,17,2,1,0,-7,6,-5,0
14010,-1,11,2,-4,-4,-6,-3,0,0
14015,7,11,-1,-6,-1,9,2,7,0
14020,-5,19,-5,3,2,9,-1,-3,0
14025,24,-8,27,-32,-12,2,-7,4,0
14030,2,45,-14,14,1,-24,1,2,0
14035,-2,14,-2,-14,17,14,-10,-3,0
14040,-10,-10,2,8,-12,15,17,11,0
14045,2,-4,-16,9,0,-2,4,2,0
14050,-1,-6,-22,0,-14,31,8,-7,0
14055,-4,-18,-11,4,8,-14,-10,-3,0
14060,-7,-18,-4,1,4,-23,-5,-8,0
14065,-5,-39,9,-1,-2,-10,-10,-10,0
14070,6,-28,27,-6,2,-9,-1,-9,0
14075,4,-9,4,14,-12,-5,4,-15,0
14080,10,15,11,-2,7,2,-15,-3,0
14085,5,50,-25,-1,10,-4,-5,-4,0
14090,-10,-3,-10,-23,-2,-11,-11,-4,0
14095,0,2,-9,-27,-7,13,-4,-9,0
14100,16,-15,-4,-3,-11,13,-2,0,0
14105,-20,-41,1,-8,-7,-7,6,-3,0
14110,-15,-6,5,-15,7,-17,-6,3,0
14115,-6,-22,11,5,-13,-1,3,8,0
14120,-2,-4,0,11,0,-5,-5,9,0
14125,-4,-4,5,8,-3,25,-1,-8,0
14130,-2,-24,4,-8,-4,5,-11,4,0
14135,-4,-1,7,6,-7,-8,1,1,0
14140,1,13,-8,-17,1,-6,4,-4,0
14145,-1,23,-23,12,0,3,-1,-6,0
14150,-5,5,-12,-2,-1,-5,10,-12,0
14155,4,10,-11,0,7,-27,-2,8,0
14160,-5,-9,9,-4,3,0,3,1,0
14165,-1,9,4,5,1,-19,-7,2,0
14170,3,-8,6,4,-32,-32,34,6,0
14175,11,-1,2,-49,27,105,-34,-14,0
14180,11,59,-3,-34,30,-20,6,-25,0
14185,-12,-56,25,-24,4,-61,40,-24,0
14190,-17,0,-8,12,0,-24,-77,11,0
14195,3,31,-10,91,-31,-110,47,4,0
14200,-11,13,-8,-7,-2,33,46,2,0
14205,-7,-62,1,4,-17,25,36,-29,0
14210,11,-26,-14,-20,-6,-74,-31,11,0
14215,-6,-32,-2,-54,0,7,-25,8,0
14220,4,-24,4,6,-18,37,-28,18,0
14225,27,56,-1,19,-3,25,-56,27,0
14230,25,-31,11,32,-4,99,-28,14,0
14235,-11,23,0,20,11,42,-65,31,0
14240,-5,48,4,-31,0,-11,-34,39,0
14245,-12,32,0,-31,2,-1,12,9,0
14250,-3,8,2,6,12,7,38,-46,0
14255,3,-13,-7,9,5,-26,50,-41,0
14260,-13,-49,0,4,-8,-23,34,-26,0
14265,-4,2,-3,-10,-12,-6,1,5,0
14270,1,42,-7,-3,7,-18,7,3,0
14275,-6,-5,3,-18,-12,-13,12,0,0
14280,-5,-42,4,11,-11,-16,3,-12,0
14285,-5,4,-8,6,-2,-15,-17,8,0
14290,-8,1,-1,3,9,16,16,-5,0
14295,-1,-3,5,-12,-16,-4,4,-4,0
14300,13,7,-3,-4,-9,-18,-15,-2,0
14305,-3,4,-9,6,7,0,-14,0,0
14310,-11,-5,10,1,-3,10,0,4,0
14315,1,3,-4,1,-6,-3,1,2,0
14320,0,8,-3,-4,1,0,-3,-1,0
14325,3,-1,-4,-3,3,7,-3,-10,0
14330,0,6,-4,-5,0,10,16,-16,0
14335,5,6,-3,-7,-2,-3,-2,1,0
14340,-1,-19,-2,-4,1,12,-8,4,0
14345,7,-13,0,2,-3,3,-8,8,0
14350,2,8,4,-7,-6,-7,2,-2,0
14355,-4,4,1,5,0,-3,7,0,0
14360,-2,-3,0,9,-4,-12,-8,2,0
14365,-5,-5,-1,5,4,-9,0,-2,0
14370,-4,2,-1,-10,-5,-11,-8,3,0
14375,4,-3,6,-1,-3,-3,-1,4,0
14380,4,-8,0,7,-1,6,0,-4,0
14385,1,8,0,0,-6,4,-1,4,0
14390,3,-5,-2,-6,-2,-6,-6,-7,0
14395,4,-10,-3,-7,-5,-6,0,5,0
14400,1,-4,-1,-5,2,-6,-5,1,0
14405,2,8,-6,-3,-1,17,-7,2,0
14410,-2,6,-2,6,5,16,5,2,0
14415,-1,0,-3,1,-10,3,-23,12,0
14420,2,-10,1,-1,11,1,9,-16,0
14425,1,1,-1,1,2,-12,-11,4,0
14430,-4,-6,-2,-8,0,-3,15,-10,0
14435,-3,-7,1,-1,-1,-16,-9,5,0
14440,1,-6,-5,2,0,1,1,3,0
14445,-8,-8,3,1,-6,8,-10,0,0
14450,-1,0,1,-4,12,-8,5,0,0
14455,0,-9,-1,-7,-5,12,0,-9,0
14460,-8,12,-3,-6,-2,-7,1,0,0
14465,8,4,1,-1,1,-7,-7,-4,0
14470,-1,-5,0,-1,-5,0,-2,1,0
14475,-1,3,-4,-3,7,-6,11,-11,0
14480,1,3,0,6,-1,-6,-7,0,0
14485,1,6,2,2,-1,-4,3,-5,0
14490,2,2,-1,3,-9,-6,-8,5,0
14495,-2,1,0,-4,-4,6,-2,-1,0
14500,10,3,1,5,-6,5,2,5,0
14505,-5,-3,-2,-2,-4,-1,-2,-1,0
14510,2,1,-2,1,-3,7,-3,5,0
14515,-5,10,-2,-3,-10,2,-3,-2,0
14520,-2,4,-4,-7,-9,2,-6,-1,0
14525,-4,-2,-3,-2,-5,-2,2,-5,0
14530,-8,-7,6,-3,-2,2,-5,-1,0
14535,2,-8,-3,-5,1,-12,0,-2,0
14540,-1,0,2,-5,-11,-7,-3,1,0
14545,0,-1,0,-7,3,-4,6,-1,0
14550,4,2,0,2,-2,-1,-3,-9,0
14555,2,-3,-1,-2,1,-6,4,-1,0
14560,-3,-5,2,0,3,-9,-1,-2,0
14565,-1,-4,-2,0,4,-9,3,1,0
14570,0,-9,-4,1,1,2,1,6,0
14575,-4,-1,-3,5,-2,-4,-4,-4,0
14580,-5,-1,-1,7,0,0,-1,2,0
14585,0,3,-3,2,2,2,0,2,0
14590,-5,-4,1,-5,0,0,0,-2,0
14595,-1,5,3,-3,3,-2,-1,4,0
14600,0,3,-2,0,2,3,-3,-1,0
14605,2,8,2,2,1,-2,-4,-3,0
14610,1,3,0,-5,-7,-4,2,-1,0
14615,1,-1,-1,-2,0,4,2,2,0
14620,-1,5,-3,0,-5,-6,-1,0,0
14625,-4,0,3,0,7,-2,3,-3,0
14630,-1,-8,-2,4,1,-1,6,-5,0
14635,-3,-3,-4,-2,-4,2,-1,5,0
14640,3,-4,1,-2,-5,0,2,8,0
14645,0,5,3,4,-1,2,-1,-3,0
14650,6,1,-3,0,-1,0,-7,0,0
14655,-1,0,-3,0,6,2,1,-5,0
14660,-2,-1,-1,-5,-4,-4,-6,-5,0
14665,-4,-6,-3,-7,5,2,-1,7,0
14670,-3,2,-5,1,1,-2,-4,4,0
14675,1,-5,-3,1,-5,-1,-1,-4,0
14680,-2,5,-4,3,-3,-3,-1,-1,0
14685,-2,-9,-3,0,-1,-6,0,-5,0
14690,-10,-4,-2,-9,-8,-9,-4,-4,0
14695,-3,0,1,0,-1,-3,5,-4,0
14700,-5,-1,1,-2,-5,-6,-1,-6,0
14705,-4,-12,-3,-4,-6,-7,-2,6,0
14710,1,-6,-4,0,-1,-3,-5,2,0
14715,-5,-1,-5,-4,-5,-1,-4,0,0
14720,-4,-6,-4,-4,2,1,0,0,0
14725,3,0,-6,0,0,7,7,-5,0
14730,3,4,3,-5,-8,2,0,0,0
14735,5,-3,-1,2,-4,0,0,-1,0
14740,-2,-5,-4,-6,-4,6,-1,-10,0
14745,1,-1,-4,-4,-9,3,-6,0,0
14750,2,-1,-1,-2,-3,10,-1,3,0
14755,5,-6,-1,-7,0,5,-8,3,0
14760,-2,1,-2,-4,4,-5,-2,3,0
14765,-3,-1,1,-7,-10,1,-5,-3,0
14770,1,2,-4,-1,3,-4,-1,-5,0
14775,0,1,2,0,-2,-5,-2,0,0
14780,2,3,-3,1,-2,-5,-4,0,0
14785,-2,-3,-1,0,-3,-6,2,1,0
14790,-8,-5,0,-2,0,-4,4,-3,0
14795,-5,-2,1,-2,-1,-5,2,-3,0
14800,0,-3,4,1,-5,-1,-1,1,0
14805,1,0,1,8,5,-1,7,-6,0
14810,0,-2,0,-2,6,5,1,3,0
14815,1,5,3,-2,4,1,-3,-4,0
14820,0,0,-1,2,0,4,-3,1,0
14825,-2,3,4,4,2,6,-2,0,0
14830,3,5,-4,-3,1,1,-1,5,0
14835,2,0,-1,1,1,3,4,2,0
14840,-1,-3,-2,-5,2,3,-5,5,0
14845,-2,-2,-3,-2,-1,0,0,-3,0
14850,-6,-4,1,-2,-6,-6,-1,-3,0
14855,1,0,-7,0,-5,4,1,2,0
14860,-5,-6,-2,-1,1,-1,0,-4,0
14865,-4,-9,-1,-4,-3,-10,-9,-1,0
14870,1,-3,2,-3,-5,-5,-7,-4,0
14875,-2,-4,-1,0,1,-3,3,-1,0
14880,-2,0,4,-3,-2,-1,-3,-1,0
14885,-5,-1,-5,2,0,2,3,0,0
14890,1,2,-3,-4,-3,-1,-2,1,0
14895,-6,-5,4,-4,-5,-4,-4,4,0
14900,-1,0,0,-3,4,0,-3,-4,0
14905,2,-5,-5,-6,1,-1,-3,2,0
14910,-1,0,-5,1,1,1,-1,-4,0
14915,-3,-1,-4,0,-5,-1,-1,4,0
14920,-3,0,-4,-6,-3,0,1,0,0
14925,1,-3,0,2,-5,2,0,0,0
14930,0,-1,-5,0,-7,-4,-2,-2,0
14935,-2,-4,-2,-5,-1,-2,1,-8,0
14940,-1,-1,-1,5,0,0,4,0,0
14945,1,0,-1,-7,-6,-5,0,0,0
14950,-5,-4,0,-5,-1,-1,1,-2,0
14955,-2,-2,2,-1,1,0,2,1,0
14960,-2,-3,-1,4,0,1,5,-2,0
14965,-2,-2,2,6,5,5,1,-4,0
14970,1,1,0,0,-2,-5,-3,-3,0
14975,-5,2,-6,-7,-4,-6,-5,-5,0
14980,1,-2,0,-6,-6,-3,-7,-1,0
14985,-1,-3,-5,-7,-1,-7,-4,0,0
14990,-2,-1,0,-2,1,4,1,2,0
14995,1,0,0,3,1,-6,-3,1,0
15000,4,1,-5,-4,-4,-10,-1,2,0
15005,-7,10,-2,-4,-9,-3,-3,-7,0
15010,-1,-3,-4,1,-2,-1,2,1,0
15015,-3,-1,-1,2,-3,1,-4,-2,0
15020,-2,-2,0,6,6,6,0,-1,0
15025,-3,-5,-6,-6,-2,5,-3,-1,0
15030,2,1,2,-8,-5,-2,2,-2,0
15035,1,-2,2,0,-2,-2,0,-1,0
15040,-1,-1,-3,2,-2,0,-1,-4,0
15045,5,1,0,-3,-7,-1,3,-2,0
15050,-1,2,-3,-3,0,2,-1,-1,0
15055,1,1,5,-2,-4,-3,0,-3,0
15060,1,-4,-4,-6,0,-7,-5,-3,0
15065,3,-4,-3,-4,-7,-1,-3,-3,0
15070,0,-7,-1,0,2,-4,-3,1,0
15075,0,1,-9,-6,-1,-5,3,-5,0
15080,-2,-2,1,-8,-4,-7,2,-3,0
15085,-6,3,3,0,2,-6,3,0,0
15090,-4,-5,-3,-2,-2,-4,0,-6,0
15095,-1,-3,-1,-2,-4,-4,-1,-3,0
15100,1,0,-3,-2,-1,-5,2,-2,0
15105,-6,-1,-1,-1,-4,2,-1,0,0
15110,2,1,4,-1,1,5,-4,-1,0
15115,0,0,0,-2,-7,5,3,-4,0
15120,-1,-5,-1,-2,0,8,2,-5,0
15125,5,5,0,1,3,0,0,-2,0
15130,-1,4,-2,0,2,4,3,5,0
15135,-4,-7,-3,-2,-1,0,-5,-1,0
15140,1,-1,3,1,-4,-1,-5,1,0
15145,-5,-7,-5,-2,-1,-4,4,-2,0
15150,-2,-5,-1,-4,0,-8,-2,2,0
15155,-3,-4,-3,1,3,-6,-2,3,0
15160,-2,-3,-3,2,-3,-4,1,4,0
15165,1,5,7,0,9,-9,1,2,0
15170,-2,-3,-5,1,1,-1,6,-1,0
15175,1,-1,-4,1,1,0,1,2,0
15180,-1,-4,0,-4,-2,-4,-1,-1,0
15185,0,1,-5,-9,-3,5,-7,0,0
15190,-3,-1,-3,-2,-1,7,1,0,0
15195,7,7,-2,-3,-1,0,-1,5,0
15200,-4,4,-3,3,-2,2,3,-2,0
15205,0,-3,0,-4,-10,-3,-3,-1,0
15210,-2,0,0,1,-7,-5,-2,0,0
15215,-3,-1,-1,2,2,-1,-1,4,0
15220,-7,-5,4,-2,-8,0,-6,1,0
15225,3,0,1,0,-5,-3,1,-4,0
15230,1,0,4,-1,-5,2,-2,-3,0
15235,-3,-3,-3,-4,3,2,4,-3,0
15240,-4,4,-1,-6,0,-2,-2,-4,0
15245,-3,0,3,3,4,-1,0,0,0
15250,-1,-3,-2,-4,2,-2,2,0,0
15255,-2,-3,3,-2,2,0,-3,-2,0
15260,2,-4,0,-4,2,-2,-4,-2,0
15265,0,-1,-1,3,-4,-7,-3,4,0
15270,-3,-1,-6,-1,-6,-4,0,-1,0
15275,-4,-1,1,-6,-6,1,0,1,0
15280,-2,-2,-4,2,-2,2,0,2,0
15285,-4,7,0,7,5,-6,-1,-3,0
15290,2,-9,-2,-3,-9,3,2,10,0
15295,0,0,1,2,-8,1,-1,-2,0
15300,2,-6,1,4,-1,3,4,-3,0
15305,0,-4,1,-6,-1,2,-4,-2,0
15310,0,5,-3,-2,-2,-4,-1,1,0
15315,-2,0,-3,-8,-6,1,1,-2,0
15320,7,5,-3,-1,2,-4,-4,0,0
15325,-3,-1,0,-2,-9,-1,0,0,0
15330,1,-5,-1,-5,3,-1,-1,5,0
15335,1,-9,-4,9,3,-5,4,2,0
15340,-10,-5,-5,-1,4,-5,0,1,0
15345,0,-14,-2,0,-4,3,-5,-6,0
15350,-3,0,-1,-9,-9,-13,-7,0,0
15355,-4,2,1,-4,-1,7,0,-1,0
15360,1,3,0,-11,-5,0,-4,-5,0
15365,2,3,-6,-3,-5,-5,1,-2,0
15370,5,6,2,6,-1,4,3,-1,0
15375,0,2,-1,-5,-1,-7,0,-2,0
15380,-3,-2,1,-2,-1,1,3,1,0
15385,-1,4,1,-4,3,-2,-7,-1,0
15390,-2,-4,-1,-3,-4,-1,6,0,0
15395,3,13,1,0,9,-8,-11,-3,0
15400,-4,-12,-2,10,-2,-4,4,-2,0
15405,2,1,-5,-10,-3,-3,-6,4,0
15410,-7,-14,-1,0,0,-2,-4,-2,0
15415,-6,-3,-3,-6,-6,4,-5,0,0
15420,7,8,-5,-7,0,-11,-2,-2,0
15425,0,-11,-3,7,2,15,-3,-8,0
15430,-12,20,2,0,-2,-2,-8,2,0
15435,6,11,-3,-10,-7,-1,2,-11,0
15440,13,-37,1,-11,3,6,-12,2,0
15445,-3,5,1,5,-2,-3,4,4,0
15450,-3,9,-5,3,6,8,-6,2,0
15455,-1,-21,2,5,-1,0,2,-1,0
15460,3,44,2,-8,-4,-6,-1,-4,0
15465,-5,0,1,-5,-6,3,-4,4,0
15470,-2,-23,-1,7,3,9,-4,-4,0
15475,-4,0,-2,-4,3,-19,4,1,0
15480,-5,-11,0,0,11,-1,6,-8,0
15485,-2,2,-1,4,6,-4,6,1,0
15490,7,16,3,-3,-6,-12,-3,-4,0
15495,2,-2,-3,10,0,2,0,12,0
15500,-10,-6,5,3,-2,-7,0,4,0
15505,-9,0,-2,-10,-6,-14,-2,-3,0
15510,3,-4,-5,0,-9,-2,3,-2,0
15515,6,4,-1,-2,2,3,1,-1,0
15520,-1,7,-2,2,4,1,1,-6,0
15525,-1,-3,-2,-5,2,3,-7,-7,0
15530,-1,-4,1,-2,-5,1,-1,-8,0
15535,-6,6,-2,-9,-3,11,-7,0,0
15540,-3,9,-4,1,-5,10,2,-2,0
15545,-2,-1,-5,-7,-3,2,-2,-4,0
15550,-1,-11,-7,-6,1,-1,-2,-2,0
15555,4,-3,0,-4,-2,1,-3,1,0
15560,-3,-9,1,-2,-6,1,1,0,0
15565,0,0,-1,5,-3,-8,-2,-5,0
15570,-3,2,-6,-4,-2,-7,1,2,0
15575,6,-1,1,1,1,-10,8,-2,0
15580,-12,-1,-3,8,-1,-7,-1,2,0
15585,-1,-1,-1,3,-2,-6,4,1,0
15590,1,-6,2,-1,0,-5,-6,2,0
15595,-1,2,-2,2,-3,0,-2,2,0
15600,-6,-3,1,4,-4,0,3,2,0
15605,0,-6,1,-2,-4,6,-8,-3,0
15610,1,2,0,2,3,13,5,-2,0
15615,3,5,-3,-9,-4,12,3,4,0
15620,-1,12,-2,-10,-2,3,1,-4,0
15625,-4,-10,-3,-9,-3,-1,0,-10,0
15630,3,0,1,2,4,0,-1,-8,0
15635,-5,-6,-1,3,6,0,4,4,0
15640,2,0,-7,-1,-4,4,0,7,0
15645,-3,-6,3,2,-4,-6,-7,4,0
15650,-3,0,1,-3,-10,-11,-1,0,0
15655,1,0,-7,3,1,2,5,-8,0
15660,-1,0,-5,2,-1,1,-1,-3,0
15665,-16,-1,1,1,9,-1,-4,-3,0
15670,3,-10,-1,-10,-4,-5,-1,-2,0
15675,3,13,-4,-4,-6,3,-2,2,0
15680,1,3,-2,-2,-2,2,3,-1,0
15685,12,-5,-2,4,-6,-3,-17,9,0
15690,-3,-5,-1,4,-1,5,3,-12,0
15695,3,-1,-3,-3,-3,0,-5,6,0
15700,-3,1,8,1,-7,-4,6,-13,0
15705,-6,-7,2,-5,0,0,-13,2,0
15710,1,-11,-6,0,-1,4,6,-7,0
15715,1,-10,0,0,-6,-6,-14,14,0
15720,4,12,-4,12,-3,-3,-1,-4,0
15725,-2,-2,4,-6,1,4,1,1,0
15730,-4,8,-3,-8,5,-4,-5,1,0
15735,-3,-11,0,-10,3,7,2,-6,0
15740,3,-9,-2,-2,1,-5,-3,-8,0
15745,1,14,2,11,1,-5,8,-12,0
15750,-10,7,2,-4,-9,-4,-6,11,0
15755,5,-6,1,2,0,0,3,0,0
15760,1,-9,1,-5,1,-5,-11,6,0
15765,-6,7,-5,7,1,0,9,-9,0
15770,4,-4,6,-2,-1,1,-5,-2,0
15775,-3,-1,-2,2,-2,-4,3,-3,0
15780,-1,-8,-2,1,4,1,1,5,0
15785,-1,-2,-4,-3,-6,-4,-4,0,0
15790,-1,7,-2,2,-1,5,-2,2,0
15795,-1,-3,-5,-2,-1,3,2,1,0
15800,2,-7,-4,-4,-4,0,-2,-1,0
15805,-6,-6,-6,-4,8,-4,4,-4,0
15810,7,-3,0,3,-1,-2,-5,2,0
15815,4,-9,-4,3,6,4,0,0,0
15820,-2,-7,3,-1,-2,4,-4,7,0
15825,-3,2,2,0,-4,-5,-4,-1,0
15830,-6,6,-6,2,2,-5,-1,1,0
15835,-3,1,3,3,3,-6,-2,-3,0
15840,2,1,-4,-1,3,-2,-2,2,0
15845,-3,3,2,-3,-4,-2,1,-3,0
15850,2,8,2,0,-1,-1,1,0,0
15855,1,-2,-4,-4,-11,0,-1,-1,0
15860,-4,1,2,-11,-10,0,-3,-1,0
15865,4,1,1,-5,-10,4,0,-5,0
15870,5,1,-8,-3,2,-3,2,-4,0
15875,-2,-1,-2,-4,0,0,-2,1,0
15880,-4,-2,0,-2,-2,1,-4,-1,0
15885,-7,-4,-3,-7,-8,-3,-3,1,0
15890,-2,-1,3,4,2,-2,-1,-1,0
15895,-5,-4,-6,5,-1,0,0,0,0
15900,2,-1,2,5,6,7,-3,-2,0
15905,0,4,-1,-4,2,1,0,-5,0
15910,-2,1,5,-6,-1,0,-5,-1,0
15915,1,6,-5,-4,-1,-6,1,-1,0
15920,-5,-3,-2,0,-4,-2,-6,4,0
15925,-1,-4,-1,1,0,-5,1,0,0
15930,0,-7,1,2,6,2,2,2,0
15935,1,5,3,1,-1,-1,-4,-4,0
15940,-4,-6,-3,-2,-5,-1,-4,0,0
15945,-6,1,-4,0,0,-3,-1,2,0
15950,-5,-5,-3,-5,-2,-5,-1,1,0
15955,-5,-1,0,-1,-4,2,-2,1,0
15960,1,-1,1,-3,3,-5,0,2,0
15965,-5,-1,1,4,-1,3,-2,0,0
15970,-2,1,-4,2,1,-2,0,-10,0
15975,-1,-6,0,1,8,-3,1,2,0
15980,-2,-1,1,-2,-9,-5,-7,0,0
15985,-1,-4,2,3,1,0,-3,0,0
15990,-2,6,3,-4,-1,2,-1,1,0
15995,-1,1,1,-3,-5,3,-2,0,0
16000,-2,-6,-2,0,6,3,1,-4,0
16005,1,4,-4,-3,5,1,-1,1,0
16010,-1,-4,-1,1,1,0,-3,-1,0
16015,4,4,2,-5,-2,0,-2,-1,0
16020,-5,4,0,-2,2,1,-2,-2,0
16025,0,1,-3,-2,-1,0,3,-2,0
16030,-1,-3,-1,-1,-4,-3,2,4,0
16035,-1,-6,1,1,4,-3,1,-2,0
16040,1,-10,-6,1,1,-3,4,-4,0
16045,-4,-1,0,5,0,1,-2,3,0
16050,-3,-1,-1,0,2,-5,-1,1,0
16055,3,0,0,1,-2,-7,-2,0,0
16060,-3,-1,-4,2,2,-5,1,-4,0
16065,1,-2,-3,-3,-3,-6,2,0,0
16070,-3,2,0,-2,-6,-5,2,-1,0
16075,-3,-3,4,4,5,1,1,-3,0
16080,-2,0,-3,-4,5,3,-1,-2,0
16085,4,-3,1,1,2,-5,-5,-2,0
16090,-2,2,-4,-7,-1,-2,3,2,0
16095,-2,-1,-6,-6,1,1,-4,5,0
16100,-3,-1,0,-1,-3,-1,-3,3,0
16105,-1,8,0,7,-4,-2,-1,2,0
16110,5,1,-1,-3,-6,-3,-4,3,0
16115,-3,-9,-2,-6,-2,-3,-1,-7,0
16120,6,-5,1,-9,5,0,-2,-3,0
16125,-7,-1,-5,-9,3,6,-2,-4,0
16130,2,-2,-6,7,5,10,0,-2,0
16135,0,8,0,-1,0,6,4,2,0
16140,-2,-1,-3,-3,-5,7,-2,-1,0
16145,-1,-6,-2,0,1,-3,-2,3,0
16150,1,-4,-4,6,-3,-1,-7,-1,0
16155,-4,-7,-2,-4,-5,-10,-2,-5,0
16160,-3,0,-1,-2,-5,-5,0,-2,0
16165,0,7,6,-7,-9,-6,2,-1,0
16170,-1,3,1,-4,-8,-2,3,0,0
16175,-1,-2,-3,3,-6,-3,-4,-2,0
16180,-3,-2,1,-1,-2,-4,-6,2,0
16185,-1,-9,-1,-1,0,-7,-3,3,0
16190,1,-10,-2,0,2,-5,-1,0,0
16195,1,-8,-3,5,0,-3,-1,-2,0
16200,2,-6,-3,4,-5,1,5,-6,0
16205,8,-4,-2,-5,-6,9,1,-2,0
16210,-3,-1,-2,-2,-2,1,2,-1,0
16215,0,11,1,-5,-2,1,-1,-2,0
16220,0,4,-2,-3,2,-2,-1,-2,0
16225,2,-3,-3,-1,-2,-1,1,-5,0
16230,6,1,-1,-3,0,-6,-4,-2,0
16235,-4,4,0,-4,3,0,-5,0,0
16240,-2,-1,-5,0,-1,-1,-2,0,0
16245,2,-1,-4,6,8,0,-3,-2,0
16250,-6,-2,-3,-3,0,-4,-4,-1,0
16255,-4,-2,1,1,-3,1,1,0,0
16260,-4,1,1,-5,-3,-6,-4,-5,0
16265,-4,-2,-3,-5,-6,0,0,-3,0
16270,0,2,-4,-7,-7,1,-2,-6,0
16275,-2,-2,3,-2,-3,-3,-4,1,0
16280,-6,4,-2,-3,-2,0,-1,-1,0
16285,0,-1,-2,-2,0,-4,-3,0,0
16290,-1,1,-1,-2,1,1,3,0,0
16295,-3,-5,2,0,0,0,-2,0,0
16300,6,0,5,0,-1,-3,1,1,0
16305,0,-1,-2,-1,-1,-2,-2,-3,0
16310,-1,-3,-3,-3,0,2,1,1,0
16315,1,-2,-2,-1,-3,-3,-1,-2,0
16320,5,-7,-1,8,-2,3,-3,-2,0
16325,-1,-4,-5,-9,-9,0,0,-1,0
16330,-4,-4,-1,-4,-4,-1,-6,0,0
16335,-3,0,-4,-2,-3,-2,-3,-3,0
16340,-3,5,1,1,3,-1,-1,-1,0
16345,5,-1,-2,3,1,-1,-2,1,0
16350,-4,1,1,0,-3,-2,0,-2,0
16355,-7,-2,-3,-3,-5,-6,-7,-7,0
16360,-5,-6,-2,-2,-4,-9,-3,4,0
16365,-5,-11,-6,0,1,-3,2,-1,0
16370,0,11,3,3,-5,-5,-3,-2,0
16375,-4,5,2,-2,4,-2,2,-1,0
16380,-1,-1,1,0,1,-2,0,-4,0
16385,-2,8,-1,-17,-8,1,-7,-1,0
16390,1,1,-4,-10,-1,-1,-6,0,0
16395,-7,8,7,-3,0,3,1,-4,0
16400,1,-1,-3,-2,-2,0,-2,-1,0
16405,0,-6,-5,-5,-4,-2,2,-5,0
16410,2,-7,-2,-2,3,-2,0,-1,0
16415,-2,2,1,6,2,0,-1,2,0
16420,2,-3,0,7,5,2,1,2,0
16425,6,-4,-4,8,-2,-3,-2,3,0
16430,4,-6,0,5,1,-5,-4,2,0
16435,4,-10,-4,7,-2,-4,-6,-5,0
16440,-2,-3,2,-1,1,0,-3,7,0
16445,4,0,-1,-3,-6,6,1,-2,0
16450,0,-9,-7,13,5,10,2,-4,0
16455,-5,-7,-5,13,6,7,3,-3,0
16460,-1,-7,1,2,1,7,-4,-3,0
16465,-1,2,2,-10,12,9,1,0,0
16470,-6,3,-1,-17,-2,-4,0,2,0
16475,0,5,1,-8,1,-1,4,2,0
16480,-3,5,3,-5,3,-14,-2,0,0
16485,-4,-1,-3,-11,-8,-18,-6,-2,0
16490,-12,-7,0,-50,-4,-17,3,-1,0
16495,-1,-1,-5,-13,-5,-12,-12,-3,0
16500,-1,24,-1,31,-4,-5,6,-8,0
16505,0,11,1,45,2,-5,8,-4,0
16510,1,-26,-1,14,-7,-5,0,-3,0
16515,-9,-37,-2,-38,-8,-11,1,-2,0
16520,3,27,-7,-34,-8,-4,-3,-5,0
16525,6,9,-5,21,-3,7,0,7,0
16530,7,8,5,18,1,17,3,-2,0
16535,-1,-1,0,2,5,9,2,2,0
16540,2,-32,-1,5,5,5,20,-17,0
16545,-3,4,6,-13,4,2,1,12,0
16550,5,8,-3,9,1,6,2,3,0
16555,2,-14,0,-2,-5,6,-9,15,0
16560,5,-7,1,6,2,4,-8,10,0
16565,6,1,-5,0,5,14,-10,11,0
16570,3,-20,4,-16,-4,0,-1,-2,0
16575,0,-5,9,8,-4,0,5,-14,0
16580,-7,20,-3,31,-12,-6,4,-7,0
16585,1,12,-3,24,-8,-5,-10,0,0
16590,-5,-17,-11,-11,1,-7,-25,12,0
16595,-5,-15,-1,-42,7,-4,-13,-2,0
16600,-4,-31,4,-23,1,-2,-9,2,0
16605,3,25,-5,7,3,-3,15,-11,0
16610,2,36,0,10,-8,3,14,-1,0
16615,-7,-5,-6,14,-9,-13,3,-13,0
16620,-14,-22,-3,-14,-3,-5,-11,8,0
16625,-15,16,-5,-1,4,-13,3,-2,0
16630,4,-24,1,36,-5,-18,-4,-14,0
16635,5,-11,-3,22,0,-12,-11,-22,0
16640,-3,-8,-4,-23,-4,27,-4,-2,0
16645,4,-32,-6,-33,1,13,13,4,0
16650,4,9,4,-31,2,-15,20,-16,0
16655,-11,31,-2,4,-1,-25,6,-4,0
16660,-16,-9,0,-5,-3,-2,1,7,0
16665,0,4,-2,-10,-9,-22,9,7,0
16670,-5,-1,-5,9,-6,9,12,-6,0
16675,-7,-9,6,8,4,21,6,4,0
16680,3,16,-2,-13,-10,68,-6,-5,0
16685,8,-19,3,-9,6,50,-12,2,0
16690,19,11,3,8,2,8,-25,11,0
16695,18,22,-9,-3,9,-23,-10,-2,0
16700,16,18,-2,1,17,-43,5,2,0
16705,11,4,3,-19,13,-18,-2,-1,0
16710,0,6,4,-3,15,-16,9,3,0
16715,-15,0,2,-3,-16,7,0,-2,0
16720,-6,-6,-4,1,-10,-5,7,1,0
16725,0,-13,-6,5,2,14,8,0,0
16730,-5,-17,-8,6,7,5,-1,-1,0
16735,3,-10,-4,2,-8,6,0,-1,0
16740,-11,-6,-3,-4,-13,-11,-4,-1,0
16745,-12,-6,-2,-2,-15,-12,2,1,0
16750,-12,2,-1,-3,-5,8,1,5,0
16755,-10,2,-1,3,-5,3,-8,-9,0
16760,6,-1,-5,3,-4,-14,-15,-7,0
16765,-1,-10,0,-3,1,-3,-3,3,0
16770,-6,-5,-6,-12,-4,-5,-8,-4,0
16775,5,3,-1,-1,-4,0,-4,-1,0
16780,8,0,-3,4,-2,-9,-3,-6,0
16785,4,-6,0,3,-7,9,2,-1,0
16790,-1,-2,-3,6,0,8,1,-3,0
16795,-1,-5,-1,3,-6,-6,-2,-6,0
16800,-6,-5,-5,2,-2,0,6,-2,0
16805,-1,0,1,-5,0,-5,3,2,0
16810,-8,9,-1,-6,-3,1,2,-7,0
16815,-3,-2,-6,-3,1,-1,-4,-5,0
16820,0,-7,1,-1,0,-4,-2,-8,0
16825,-1,-1,3,-9,-2,-2,3,1,0
16830,-6,-2,-6,-5,-6,-3,1,-2,0
16835,-6,-3,-2,0,-4,-5,-7,-5,0
16840,1,2,0,8,1,-3,3,2,0
16845,6,2,1,2,8,3,4,1,0
16850,-3,-3,-3,-10,-5,2,-9,-4,0
16855,6,-2,-1,3,-5,-11,-9,-1,0
16860,0,-3,-1,-3,-3,-8,-7,-4,0
16865,-4,-4,3,-1,-3,11,4,1,0
16870,-2,5,3,-7,-6,-1,-1,-3,0
16875,-10,3,-1,-5,-7,-10,-2,-3,0
16880,-4,3,0,-6,4,-7,0,2,0
16885,2,-1,1,-3,3,10,8,3,0
16890,-3,-5,-4,-2,-5,6,-1,1,0
16895,-5,-11,-4,-3,-10,-8,-3,-4,0
16900,-7,-1,4,2,-1,4,4,-5,0
16905,3,1,-1,-4,6,9,4,8,0
16910,0,-4,-4,-2,-2,-6,-6,1,0
16915,-3,3,0,0,0,-11,-13,0,0
16920,3,1,-4,5,4,4,0,5,0
16925,0,-7,1,-3,-1,1,0,1,0
16930,0,-1,-6,-5,-2,-2,-1,-2,0
16935,2,1,-1,4,0,-8,-9,-5,0
16940,-3,-5,-2,-1,-2,-2,3,-2,0
16945,1,0,-2,-5,2,8,8,2,0
16950,-1,-3,1,-3,4,-7,-1,-1,0
16955,0,0,1,-3,-3,-6,-6,-6,0
16960,-2,-2,4,4,6,3,-3,-1,0
16965,-6,-6,-2,-3,-5,2,4,0,0
16970,-5,-3,3,-2,-8,-2,4,3,0
16975,-2,0,0,-3,-12,-10,-3,-4,0
16980,6,8,0,0,1,-5,0,-3,0
16985,-2,4,-1,1,3,8,10,3,0
16990,-9,1,4,-1,-7,-2,5,0,0
16995,2,-3,-2,4,-5,-8,-7,-11,0
17000,7,-3,-1,1,5,1,-2,-6,0
17005,8,-9,-9,-5,-7,-1,5,4,0
17010,-5,1,-3,9,-7,-7,-10,-2,0
17015,-6,-2,7,9,3,-2,-6,-3,0
17020,-1,-3,-1,-5,-3,0,0,6,0
17025,-7,-4,-6,-10,-8,-4,5,2,0
17030,-9,-5,-9,-13,-1,-1,-4,-3,0
17035,-2,11,1,-1,9,-5,-7,-3,0
17040,8,3,6,-3,4,6,0,0,0
17045,-1,-1,1,-11,-11,-1,7,4,0
17050,6,-2,0,-1,1,-4,-3,0,0
17055,-3,6,1,4,13,-1,-12,-1,0
17060,-4,-4,1,2,5,-2,-8,2,0
17065,-1,-1,-3,3,-6,-4,-6,5,0
17070,5,-6,-2,-1,-4,-4,-2,-3,0
17075,9,7,5,9,12,5,8,0,0
17080,8,-9,-3,8,-3,8,6,2,0
17085,-8,-20,-2,6,-9,-9,4,-3,0
17090,-3,9,-3,-2,-5,-7,-2,-7,0
17095,-5,18,5,1,16,15,0,4,0
17100,-8,14,-1,0,-2,7,-1,-1,0
17105,-10,1,-8,-8,-19,-14,-1,-6,0
17110,1,-2,4,5,7,-1,-4,-1,0
17115,6,-4,-3,1,7,22,16,8,0
17120,-1,-5,-6,-6,6,-2,4,1,0
17125,-2,-6,2,-12,-20,-17,-17,-16,0
17130,-18,0,-3,0,3,-3,-11,5,0
17135,7,1,3,8,19,17,2,6,0
17140,15,-7,3,0,4,-1,2,-3,0
17145,-6,-16,-8,-4,-7,-22,-12,-5,0
17150,4,4,-6,1,-8,-6,-4,0,0
17155,-1,3,5,12,12,20,11,2,0
17160,-8,12,-1,4,3,6,8,5,0
17165,-2,-3,-5,-3,-14,-22,-12,-13,0
17170,-1,-3,1,4,2,-4,-2,-5,0
17175,3,-10,-2,0,10,18,11,6,0
17180,3,3,2,1,-3,2,2,-3,0
17185,-4,-5,-4,-6,-8,-24,-12,-5,0
17190,6,0,-2,-5,-5,-2,-3,-5,0
17195,0,4,-4,-78,75,-43,-33,4,0
17200,48,-27,-7,78,9,-39,76,-25,0
17205,-19,13,15,10,8,-12,72,52,0
17210,53,19,-33,-11,59,-52,48,-35,0
17215,70,-100,48,-4,61,-98,-15,7,0
17220,-68,110,-46,-63,-56,111,4,-17,0
17225,-13,-117,30,-7,-24,58,1,18,0
17230,52,63,-7,18,71,29,-46,-25,0
17235,-10,-21,2,-17,15,19,-2,20,0
17240,79,-91,41,15,-48,-11,59,58,0
17245,-70,127,-5,-22,24,43,-44,69,0
17250,14,-83,103,-13,-28,88,-12,-5,0
17255,-26,100,-24,68,-30,-7,-77,-55,0
17260,15,-24,-41,-49,44,71,-93,-19,0
17265,-42,93,-65,14,-19,-100,64,-8,0
17270,-2,71,-45,2,-31,-18,-15,24,0
17275,-18,-25,-12,25,-15,90,19,13,0
17280,-31,-17,19,-15,-2,12,-15,-16,0
17285,31,-10,-17,25,-18,-18,-11,-45,0
17290,8,31,-19,-11,-12,29,-6,-5,0
17295,-9,27,-16,-12,-21,10,69,-20,0
17300,-38,30,-11,-9,-3,-51,-8,13,0
17305,40,-55,30,-33,10,12,-36,-29,0
17310,-38,-24,14,0,-19,0,38,23,0
17315,4,-27,23,-11,2,89,34,11,0
17320,-13,-52,13,3,11,-57,-43,9,0
17325,-2,-82,-3,-31,-24,-103,-94,0,0
17330,-48,-111,-15,11,-30,-78,-27,8,0
17335,11,-64,-31,85,-16,-37,28,13,0
17340,-11,22,-2,117,-3,-26,41,20,0
17345,33,27,-6,72,-3,34,0,5,0
17350,23,86,14,-58,12,-31,-38,-12,0
17355,38,21,33,-107,-10,-1,-17,-41,0
17360,-35,-28,14,-45,-6,17,-18,-9,0
17365,38,31,8,-50,4,108,29,-13,0
17370,25,55,-1,1,19,63,38,-4,0
17375,-4,87,-1,-3,17,27,-40,-2,0
17380,0,44,-14,-84,-11,1,11,-35,0
17385,-46,-109,-12,-7,-56,-51,-6,1,0
17390,-47,-79,-11,-4,-21,-72,-11,0,0
17395,0,3,-6,86,-2,-34,5,15,0
17400,-4,-9,2,113,-17,-18,28,20,0
17405,15,47,-12,-46,24,59,-16,-3,0
17410,-24,-43,2,-37,-1,-3,-12,10,0
17415,-10,-40,1,-40,-14,-1,-31,-27,0
17420,17,6,1,-37,19,-1,-28,-2,0
17425,9,49,-10,29,5,-6,25,15,0
17430,16,3,6,52,1,29,3,1,0
17435,-27,10,1,9,-15,-7,-4,-8,0
17440,-9,-30,1,-48,-24,-34,-15,-4,0
17445,-3,-30,-1,-31,-6,-11,7,-4,0
17450,-8,19,-8,28,-4,19,11,5,0
17455,6,37,7,28,6,9,10,-7,0
17460,9,32,-2,-11,15,-1,5,4,0
17465,7,-37,-4,-18,5,10,-6,5,0
17470,-10,-16,5,-21,0,-16,-14,-11,0
17475,-17,0,5,-13,-20,-18,-16,-10,0
17480,2,7,0,3,4,-6,2,3,0
17485,7,20,-8,42,7,-6,13,8,0
17490,0,-7,-6,25,-5,13,2,-2,0
17495,-10,-22,4,-25,-9,-18,-11,-6,0
17500,-9,-12,-6,-47,-5,-4,-22,-6,0
17505,11,-6,-1,-7,2,-5,-8,-3,0
17510,4,21,2,24,-4,12,2,0,0
17515,2,8,3,10,-10,12,5,3,0
17520,-5,-4,-2,-1,-1,-16,6,-2,0
17525,-5,0,-3,-11,-5,-25,3,-4,0
17530,-11,-17,1,-22,-15,-7,-4,-10,0
17535,-12,0,1,-9,-4,6,0,-2,0
17540,17,16,-2,15,3,9,1,3,0
17545,8,24,-2,11,14,4,7,2,0
17550,-4,-9,-1,-5,3,9,-7,0,0
17555,-9,-32,0,-13,-6,-13,-13,-4,0
17560,-11,-16,-3,-7,-3,-14,-11,-4,0
17565,4,6,4,3,7,5,1,-2,0
17570,-4,7,0,16,3,-1,1,9,0
17575,1,4,-3,10,-7,-5,2,-2,0
17580,3,-7,-4,-11,-2,-2,-6,0,0
17585,-4,-16,-5,-15,-6,-6,-8,-1,0
17590,-4,7,2,-11,4,-2,-1,-6,0
17595,-3,12,-2,-5,-2,5,2,1,0
17600,8,12,-1,10,0,10,-1,2,0
17605,-1,-1,6,8,-3,-1,11,0,0
17610,-2,-9,2,-10,-2,-14,1,-3,0
17615,-15,-11,-2,-14,2,-9,-4,0,0
17620,-4,-9,-1,6,0,2,0,-3,0
17625,7,-9,-1,3,3,6,0,-1,0
17630,3,13,-5,7,-1,8,-3,1,0
17635,6,-2,-3,1,-7,-5,-10,-3,0
17640,2,-13,1,-13,0,-4,-3,-6,0
17645,-8,-9,-1,-4,1,-5,-2,-1,0
17650,3,-4,-1,5,13,1,-4,0,0
17655,-2,9,-3,11,7,4,4,1,0
17660,-4,8,1,2,5,2,8,5,0
17665,1,1,-6,-9,-5,0,0,0,0
17670,-3,-8,6,-8,2,-9,5,0,0
17675,-5,10,0,-4,2,-1,-3,2,0
17680,0,4,-2,5,-2,-3,-6,-1,0
17685,1,2,-2,6,-4,0,-2,-6,0
17690,1,-10,2,0,1,1,-9,-6,0
17695,0,-13,-2,-5,1,-3,-2,-7,0
17700,-4,-4,-6,-10,-3,0,-4,2,0
17705,-7,0,-5,0,2,-2,5,-1,0
17710,2,12,0,6,2,1,1,-4,0
17715,4,-1,-3,5,-9,0,0,-1,0
17720,-2,-3,3,-9,-2,4,-7,-2,0
17725,-2,-5,2,-2,3,0,-2,-5,0
17730,0,-3,6,-7,-1,0,1,-7,0
17735,0,6,0,1,-5,-1,6,-3,0
17740,3,4,-3,6,-7,2,6,4,0
17745,2,2,-8,-4,-5,-1,2,0,0
17750,-8,-1,-4,-8,-4,-3,-7,-2,0
17755,-1,-10,5,-12,-3,-3,-13,4,0
17760,1,-5,-2,-8,-8,-9,-8,-6,0
17765,0,6,0,-1,2,-4,0,-1,0
17770,-1,3,1,7,8,2,-2,0,0
17775,-3,4,1,8,7,-1,5,0,0
17780,-7,-5,-2,0,1,-3,-1,-2,0
17785,-2,-5,-1,-3,0,-3,-3,-6,0
17790,1,-5,-2,-6,-1,-1,-2,1,0
17795,-2,7,4,9,2,3,-3,0,0
17800,-3,4,1,6,3,0,5,4,0
17805,-2,-1,2,-2,-5,-1,-3,-2,0
17810,-4,-3,-3,-10,-5,-5,0,0,0
17815,1,-3,0,-8,1,-1,1,-1,0
17820,2,-7,-4,-6,-6,-8,1,1,0
17825,0,2,-2,-2,-10,-2,-4,-2,0
17830,0,3,-1,11,0,1,1,-4,0
17835,-2,-8,-4,1,3,-2,-1,4,0
17840,2,-4,-1,-7,0,2,1,-2,0
17845,0,-5,1,-4,0,-2,1,3,0
17850,-1,2,-3,6,-1,-3,-6,2,0
17855,-1,1,-1,6,3,0,-3,0,0
17860,2,-2,-2,7,1,-5,5,6,0
17865,-6,-1,-1,-3,0,-3,-1,0,0
17870,-3,-5,2,-3,0,1,3,-5,0
17875,-2,0,4,-4,-1,-3,-3,1,0
17880,-6,-4,-5,-7,-3,-2,-2,1,0
17885,0,2,-5,-3,-3,-2,5,-5,0
17890,-2,0,0,2,-2,-4,-4,-1,0
17895,0,2,-3,-3,-3,-3,-3,-11,0
17900,-1,4,-2,-5,0,-5,0,0,0
17905,3,-7,-5,-1,-2,0,1,2,0
17910,-3,-4,-5,-1,7,0,-3,-3,0
17915,-1,2,1,-2,-5,-1,-3,0,0
17920,-4,-1,-4,-2,-5,-3,-7,-3,0
17925,-2,-7,0,-7,-3,-4,-5,-3,0
17930,1,1,-5,-2,1,-2,2,1,0
17935,-6,-5,-3,3,2,3,1,0,0
17940,3,-2,0,-1,-4,0,4,0,0
17945,-7,0,-3,0,-2,2,-1,1,0
17950,-2,-4,1,-8,-9,-4,-5,-7,0
17955,1,-5,1,-2,-3,-2,1,-1,0
17960,-5,-1,-3,-8,-2,-5,0,-1,0
17965,-1,3,-1,-2,0,-3,2,-1,0
17970,-1,-2,-3,3,11,3,1,4,0
17975,-1,1,-1,3,2,-1,-6,0,0
17980,-3,-7,-4,-1,-4,4,0,2,0
17985,0,-1,3,-2,-5,-1,2,-1,0
17990,-6,-2,-3,-1,-4,0,-4,-2,0
17995,-4,-3,-2,-3,-2,-4,-3,-4,0
18000,0,-1,-3,0,-6,-1,5,-3,0
18005,1,4,-3,0,-3,-2,-5,1,0
18010,-1,-3,-1,-3,-4,2,-3,-2,0
18015,-5,0,-4,0,3,-1,-1,1,0
18020,-6,-3,-8,1,9,4,-1,1,0
18025,-6,-3,-5,-3,-1,0,-2,-2,0
18030,-2,4,-2,2,3,-1,-1,-4,0
18035,-2,4,-2,-3,-1,0,-6,1,0
18040,-1,0,-1,1,1,-4,2,3,0
18045,-1,-5,-1,0,6,1,2,-1,0
18050,1,1,1,2,-4,-4,-4,3,0
18055,-1,-2,1,1,5,-1,3,1,0
18060,-3,2,-4,-2,-3,4,3,-4,0
18065,-4,2,-2,5,2,0,3,0,0
18070,-2,-2,1,-1,0,0,-4,-2,0
18075,5,0,1,1,-1,-2,-2,-3,0
18080,1,-3,1,-3,-11,-2,-2,2,0
18085,-3,0,-2,-4,1,1,-2,3,0
18090,0,1,2,0,-7,-3,-2,-3,0
18095,2,-2,-3,-4,-6,-3,0,-1,0
18100,-2,-3,-2,-3,4,-6,-1,-4,0
18105,-3,-2,-4,-3,-2,1,-9,-7,0
18110,-1,-1,1,1,2,-2,2,-1,0
18115,0,0,-3,-2,-1,1,1,-3,0
18120,-4,1,-1,-4,-7,-3,-4,2,0
18125,-1,-1,-2,-1,-3,-2,-3,-1,0
18130,-3,-3,-1,2,3,0,1,-5,0
18135,-2,-2,-3,-2,-1,-2,8,0,0
18140,-1,0,-4,-3,-9,-5,-1,-1,0
18145,-5,0,0,4,2,-1,0,3,0
18150,1,2,5,-4,-3,7,-6,-3,0
18155,-3,-1,-2,2,-3,-2,-2,-7,0
18160,5,-1,-1,0,5,1,-4,2,0
18165,0,-5,-3,2,5,-2,-2,-6,0
18170,0,0,1,3,1,2,5,-1,0
18175,-5,-8,-2,-3,3,1,0,-1,0
18180,-4,2,-5,-2,-3,-4,-2,-2,0
18185,6,-1,-2,-2,2,-1,-3,0,0
18190,0,-1,-5,-5,5,3,-5,-4,0
18195,-4,0,-2,-3,-6,5,-3,-2,0
18200,-2,-2,0,-2,1,-4,-6,-3,0
18205,3,0,-1,-4,2,-6,2,-2,0
18210,-5,-5,0,3,4,-1,-2,-2,0
18215,2,4,-2,-7,-5,-10,-3,-2,0
18220,5,-1,-2,-1,-7,0,3,-2,0
18225,1,0,-2,-3,-2,-4,-1,1,0
18230,0,-2,0,-4,-4,-4,0,-2,0
18235,-3,3,-3,1,5,4,-3,3,0
18240,0,-1,-1,-3,-5,-3,-3,-2,0
18245,-2,2,-4,0,-3,-5,-4,-4,0
18250,-2,-2,-3,0,-2,-3,-1,-2,0
18255,0,-6,0,-1,-6,1,1,2,0
18260,-1,-3,0,-4,2,-2,0,-4,0
18265,-2,1,-3,-4,-2,2,-8,0,0
18270,1,0,-3,-5,-2,-4,-8,-3,0
18275,-3,1,-2,-2,0,-1,-3,-2,0
18280,3,2,1,-4,2,-2,2,4,0
18285,-3,-1,5,-7,-15,-9,-4,-4,0
18290,-3,-3,-3,4,10,2,3,3,0
18295,-4,-4,-10,-6,0,5,4,-1,0
18300,2,-2,-1,0,2,-3,-1,-1,0
18305,-3,0,0,2,6,2,-2,1,0
18310,0,0,-1,1,-10,-2,-3,-3,0
18315,0,-3,0,2,-1,-5,-1,0,0
18320,-3,0,-3,2,0,3,-1,-1,0
18325,1,-1,-4,1,-4,-3,-2,-3,0
18330,-3,0,2,-1,0,4,2,-2,0
18335,3,-4,1,1,-6,-1,-3,2,0
18340,-5,-2,-1,-3,-3,-4,-1,3,0
18345,-1,-2,-2,2,5,0,-2,-5,0
18350,-4,3,1,-1,-2,0,-3,-5,0
18355,-4,-1,-2,0,2,0,3,-2,0
18360,-2,0,-1,-5,-2,-4,-1,-2,0
18365,0,-1,2,-4,-1,0,0,2,0
18370,-3,0,1,3,4,0,4,3,0
18375,1,-7,-1,0,7,2,0,1,0
18380,-2,-1,-2,-4,-4,1,-2,2,0
18385,-3,-3,-1,-4,1,1,0,0,0
18390,2,1,2,-2,-9,-6,0,-3,0
18395,-1,-1,-9,5,2,2,3,0,0
18400,-5,-5,-1,-6,-5,-5,0,1,0
18405,-1,2,4,3,-2,-4,-2,0,0
18410,-6,-5,-2,-1,0,0,0,-1,0
18415,-4,0,-1,1,5,1,1,-3,0
18420,3,-1,-4,-1,-3,-6,-4,-2,0
18425,2,4,-3,6,5,3,0,-4,0
18430,-1,-3,1,0,-1,-1,1,-2,0
18435,-2,-3,-2,-6,-2,-6,-2,2,0
18440,-2,-6,-1,-4,-4,-1,3,-4,0
18445,0,2,2,-1,-2,-5,0,-7,0
18450,2,-1,1,1,1,-3,-6,-2,0
18455,1,0,-1,-7,-2,2,-2,-2,0
18460,-3,-4,-5,-4,-3,0,-7,2,0
18465,0,-5,1,-1,-4,-2,-3,-5,0
18470,-1,-3,-1,0,5,2,4,0,0
18475,0,1,2,-2,-8,-4,2,1,0
18480,1,-3,1,0,1,3,6,-3,0
18485,1,-3,-5,-4,-5,-5,-1,-1,0
18490,0,-3,0,-2,4,6,-1,7,0
18495,3,0,1,-4,-4,1,0,-5,0
18500,0,3,0,1,-5,-7,2,-3,0
18505,1,-4,2,-3,-7,1,-1,-3,0
18510,3,5,1,2,-9,-4,-3,-2,0
18515,0,-1,1,-6,-4,-5,3,3,0
18520,-2,3,2,3,-3,-2,-3,-4,0
18525,-5,1,0,-4,-3,2,-2,2,0
18530,2,0,-2,-2,-2,-4,-2,0,0
18535,-4,-1,-3,-4,1,-2,1,0,0
18540,4,-2,4,0,2,1,-3,-2,0
18545,-1,-3,-1,0,2,2,-3,-4,0
18550,-8,-7,-5,-5,2,5,5,0,0
18555,0,-3,1,1,-7,2,-6,6,0
18560,-2,-4,-3,0,-2,-1,4,-1,0
18565,-3,3,-2,-3,-3,-4,-5,0,0
18570,-1,0,-2,-2,-3,-2,3,1,0
18575,-1,0,2,-4,-1,-2,0,-3,0
18580,2,-3,1,1,-2,-2,-1,0,0
18585,-4,-2,-1,2,1,0,-1,3,0
18590,2,1,-5,-8,-12,-6,-7,-8,0
18595,-3,-2,0,-3,-5,-4,2,-5,0
18600,-2,-1,-3,-2,-1,0,2,1,0
18605,1,-4,1,-3,-1,-5,-7,-4,0
18610,-2,-2,0,-4,2,-4,-6,0,0
18615,-2,1,-2,-2,-2,-4,2,-3,0
18620,3,-4,-4,-3,-4,-5,1,0,0
18625,-2,-3,-4,4,5,2,1,0,0
18630,-3,2,4,2,-1,-3,1,-1,0
18635,0,-1,0,-1,0,2,2,-1,0
18640,-3,3,-4,-3,0,0,-5,2,0
18645,0,0,-2,-4,0,4,4,-3,0
18650,-2,2,-3,-1,4,-2,-2,6,0
18655,1,-1,-1,1,0,0,-2,0,0
18660,-5,-6,0,-3,-1,-1,-1,-1,0
18665,0,1,3,5,0,-3,1,-5,0
18670,2,-1,-4,3,-2,4,-5,4,0
18675,-6,0,-2,0,-1,0,1,4,0
18680,-3,0,-3,0,-3,-3,-3,-2,0
18685,3,-1,1,0,3,1,-7,0,0
18690,-2,4,2,0,1,0,-1,-4,0
18695,0,-3,-3,-3,-1,-1,2,-3,0
18700,-1,-4,-2,-2,2,-1,1,-2,0
18705,-3,-3,1,3,-4,2,2,-2,0
18710,-1,-6,1,-1,-7,2,1,1,0
18715,0,-6,-5,-4,1,1,-1,-4,0
18720,0,3,-1,2,2,1,2,-1,0
18725,-1,2,-2,-4,3,-4,-2,-1,0
18730,-1,-7,0,-3,2,1,-2,2,0
18735,3,-1,-1,2,-4,-2,-1,-1,0
18740,-1,-4,-1,-3,-1,-3,0,-1,0
18745,-5,2,0,1,5,-4,-3,-1,0
18750,0,6,2,-2,-5,3,5,-6,0
18755,0,2,-3,-4,-3,4,-3,-2,0
18760,1,-2,-1,-4,0,-3,3,-1,0
18765,-2,-1,-2,2,-6,1,0,0,0
18770,-1,-3,-2,0,-3,1,0,-7,0
18775,4,1,-1,0,-2,-5,2,0,0
18780,-3,0,-3,-3,-7,-1,-5,2,0
18785,-1,-9,-8,-9,-7,-3,-1,-2,0
18790,-4,4,2,3,6,-3,3,3,0
18795,0,-4,0,2,-1,0,-2,0,0
18800,-4,-4,-3,-2,-4,-2,0,-2,0
18805,-2,0,1,-2,1,-1,-1,-1,0
18810,8,-3,4,1,-3,-2,1,-6,0
18815,-3,-1,-6,-3,-2,-5,3,5,0
18820,0,3,-2,-5,-2,-1,0,-1,0
18825,0,1,4,9,4,-2,-2,-2,0
18830,1,0,-2,-1,-3,-7,-3,-2,0
18835,-2,4,1,0,1,-1,-3,1,0
18840,1,-2,-3,0,-5,0,-1,2,0
18845,-5,-3,-6,-3,-8,-2,0,0,0
18850,-1,-4,-6,-1,1,-3,-3,-5,0
18855,0,0,-3,-3,-3,-3,0,-3,0
18860,-5,0,-6,2,0,-4,-3,0,0
18865,-2,3,4,-1,-1,-1,-3,-4,0
18870,-7,-3,-6,-4,3,0,-1,-3,0
18875,-6,-7,-4,-7,-5,-3,1,0,0
18880,2,-2,-1,-1,4,1,-2,-3,0
18885,-3,0,-1,-6,1,1,1,1,0
18890,2,2,1,2,0,2,1,1,0
18895,3,-1,-1,-5,-8,-8,-1,-2,0
18900,-1,2,-1,-5,-8,0,2,2,0
18905,1,-5,-1,0,2,3,-5,-4,0
18910,-2,0,1,-2,-6,3,-2,-2,0
18915,2,-2,-2,-5,-11,2,-5,-5,0
18920,-2,-3,2,4,0,0,0,1,0
18925,0,-1,0,0,3,0,5,0,0
18930,-3,1,-2,1,1,-2,-1,-2,0
18935,-1,-2,-2,1,-1,-2,-3,-3,0
18940,0,-5,-8,-4,1,-2,-3,-1,0
18945,3,3,-1,0,1,-2,0,0,0
18950,-1,-3,4,-1,-5,-2,-2,-7,0
18955,0,-2,-3,-3,-1,2,3,-1,0
18960,-1,-8,-5,-7,-7,-2,-2,1,0
18965,-1,1,-1,-1,5,-3,-2,-3,0
18970,-1,1,-1,-5,-3,-2,-2,-3,0
18975,-3,-2,1,-6,-7,-3,-2,0,0
18980,1,-1,-3,-4,-1,-2,1,0,0
18985,2,2,3,-3,-7,0,-1,-7,0
18990,0,-4,-5,-3,0,1,-4,1,0
18995,1,-4,-5,1,-2,0,1,-3,0
19000,-2,-6,-5,-1,1,-2,4,-2,0
19005,0,-3,-3,0,1,-2,-3,-1,0
19010,3,-2,1,3,7,1,3,8,0
19015,3,0,4,1,-1,0,1,1,0
19020,4,-2,4,3,-1,5,-4,-2,0
19025,-1,-1,4,0,-4,2,0,-1,0
19030,-2,0,0,2,-6,-1,0,1,0
19035,-1,-5,-4,-2,2,-2,-3,1,0
19040,-7,3,-1,-2,-5,-4,-6,-4,0
19045,0,2,-2,2,7,1,1,-3,0
19050,-1,0,1,-1,-4,-4,-4,-5,0
19055,0,0,-2,1,4,-5,0,4,0
19060,2,0,0,-2,-4,-4,-8,-4,0
19065,-4,-2,-1,1,0,1,-1,-2,0
19070,-14,-12,-5,-2,2,-1,-1,-9,0
19075,-16,-12,-1,-5,-5,-2,0,-13,0
19080,4,1,-2,1,-1,1,-1,4,0
19085,11,2,2,0,-5,-6,-3,6,0
19090,17,12,1,3,5,2,4,7,0
19095,11,7,0,0,-6,-2,1,11,0
19100,-1,-1,-1,-4,-1,-2,4,4,0
19105,0,-1,2,-5,-8,-3,-7,-2,0
19110,-4,4,-2,-4,-5,-12,-12,-10,0
19115,-6,-6,-9,-2,0,3,6,1,0
19120,0,-5,-3,-3,5,9,3,0,0
19125,-7,-6,0,1,5,4,1,-8,0
19130,4,1,2,6,6,5,-1,3,0
19135,0,0,-2,0,1,1,6,2,0
19140,-4,-2,-1,-2,-9,-9,0,3,0
19145,-5,1,-1,-3,10,-6,-1,-5,0
19150,-5,-5,1,0,-4,1,3,0,0
19155,1,-2,-4,-2,-1,-4,-2,-1,0
19160,-2,-2,-5,-5,-3,-2,3,0,0
19165,-5,-2,-3,-1,-1,-7,-10,-3,0
19170,-1,2,3,-2,0,1,-1,-2,0
19175,-2,-3,-3,2,1,8,4,3,0
19180,-1,-5,1,0,-1,-1,1,-2,0
19185,-4,0,0,-6,-9,-2,-9,-5,0
19190,2,0,-3,-6,-8,2,0,-2,0
19195,-2,1,2,2,0,-1,3,-1,0
19200,-2,1,-1,-4,-2,-3,-2,-3,0
19205,-4,1,1,-3,-4,-2,-6,0,0
19210,1,-1,0,5,7,0,-1,-3,0
19215,0,3,0,1,3,-4,1,7,0
19220,1,-5,-4,-1,-6,-3,0,-1,0
19225,3,1,0,3,8,-2,0,-2,0
19230,-4,-6,-6,-2,5,0,-1,-4,0
19235,5,-2,-4,-5,-1,-2,-2,0,0
19240,-2,-3,2,1,-3,-3,0,-3,0
19245,1,4,-2,0,-6,-1,-1,-5,0
19250,1,-2,0,1,8,1,1,4,0
19255,-3,-1,-2,2,4,-4,-2,5,0
19260,-4,2,2,-3,-1,-1,-4,0,0
19265,-7,-4,-2,-6,-4,0,2,-2,0
19270,-1,-1,2,3,6,-2,-2,3,0
19275,-1,-3,-1,-8,-10,-4,3,3,0
19280,-4,-2,-5,-6,0,-3,-1,-6,0
19285,2,-5,3,2,5,1,1,-2,0
19290,-1,0,-3,-7,-3,-3,-3,-3,0
19295,1,-1,2,-1,2,2,4,3,0
19300,-2,3,-4,2,2,-4,-2,-6,0
19305,-6,-1,-2,1,-3,-3,-6,-7,0
19310,1,6,5,4,3,6,0,-2,0
19315,-2,0,-4,-4,-3,-1,1,2,0
19320,-5,-5,-4,-1,-6,-6,-11,-6,0
19325,-3,-4,-1,0,-3,1,-1,-7,0
19330,-4,0,-3,1,-3,-1,-3,-6,0
19335,-1,2,0,-2,-5,-2,2,-11,0
19340,-10,0,-3,-6,-11,-11,-13,-30,0
19345,-17,-7,-8,1,2,-1,-9,-29,0
19350,3,4,0,1,-3,8,3,-17,0
19355,4,2,1,-6,-4,1,6,-16,0
19360,-17,-7,-8,-3,-8,-6,-3,-53,0
19365,-5,0,0,0,0,-1,-3,-46,0
19370,9,6,5,4,0,12,29,36,0
19375,3,5,6,-5,-8,1,17,27,0
19380,-43,-16,-10,-9,-6,-9,-8,-91,0
19385,-54,-6,-6,3,-2,-8,3,-118,0
19390,15,13,4,3,3,15,20,-95,0
19395,57,22,-2,-1,1,21,0,-99,0
19400,109,-63,-57,-62,-57,-65,-83,23,0
19405,-59,114,116,82,116,115,100,61,0
19410,7,93,88,52,85,99,117,127,0
19415,-4,68,49,31,60,92,52,127,0
19420,-16,11,-13,5,-11,-34,-13,-101,0
19425,-46,-92,-65,-49,-48,-81,-71,-111,0
19430,16,-122,-15,-27,-7,-69,-81,80,0
19435,55,83,-9,-49,-41,-90,13,96,0
19440,22,-54,-12,73,55,60,51,-60,0
19445,37,32,-21,110,-29,26,-13,-86,0
19450,1,80,6,48,-12,17,24,24,0
19455,-4,-85,-12,-110,-12,-33,-54,76,0
19460,-40,24,8,-76,-21,-49,-33,-18,0
19465,-29,-41,-10,-8,-29,-47,22,-68,0
19470,28,20,-3,32,26,-23,4,32,0
19475,14,52,8,12,24,12,54,58,0
19480,-26,12,19,36,-44,68,-10,-14,0
19485,-19,-17,-30,29,-8,57,8,79,0
19490,4,-28,-10,-2,6,40,-66,37,0
19495,0,-52,7,18,22,-34,9,59,0
19500,-47,-26,-2,-22,18,-53,18,8,0
19505,70,-45,8,-46,-36,-82,-1,88,0
19510,9,6,-18,24,-37,-16,-25,62,0
19515,8,-60,2,58,-27,12,-18,20,0
19520,12,13,-16,12,7,29,-14,-1,0
19525,-5,-12,8,-16,-7,-30,-50,76,0
19530,-53,7,-20,-60,2,-35,15,57,0
19535,-42,-11,-7,1,8,-14,-3,4,0
19540,-26,37,14,19,8,-3,34,11,0
19545,1,35,7,-48,33,40,10,127,0
19550,-19,1,1,3,-22,-5,-12,49,0
19555,-37,1,-5,26,-13,10,-35,7,0
19560,9,0,30,11,37,39,20,-8,0
19565,25,2,8,-3,39,30,15,114,0
19570,-24,-44,-10,-30,-26,-47,-19,44,0
19575,-32,-14,-18,-3,-35,-21,-16,60,0
19580,17,28,11,22,22,36,2,6,0
19585,25,14,12,61,89,43,16,39,0
19590,-5,7,-8,5,-4,-11,4,43,0
19595,-10,6,-13,-10,9,-11,4,-24,0
19600,9,22,18,-1,23,20,40,-1,0
19605,15,26,-11,-29,-22,1,22,13,0
19610,4,-4,-12,-26,-32,-16,13,27,0
19615,-1,-1,-15,11,-13,7,-3,13,0
19620,8,-17,13,21,23,6,4,20,0
19625,6,-13,8,20,35,6,-15,-68,0
19630,-5,-26,-13,-3,-2,-15,-6,28,0
19635,-4,-18,-10,-13,-19,-13,-9,-40,0
19640,5,13,10,16,24,27,20,54,0
19645,7,3,13,14,26,22,16,62,0
19650,-6,-5,-1,-34,-30,-13,-8,-82,0
19655,-7,16,-5,-2,9,9,-11,-93,0
19660,11,47,10,-6,-7,-1,-15,-26,0
19665,3,31,3,-5,-8,-1,-11,9,0
19670,-12,-17,-13,-20,-21,-13,3,-41,0
19675,-20,-28,-6,-16,-13,-6,2,-17,0
19680,-16,3,-4,-21,10,-7,-3,59,0
19685,-6,4,4,6,16,5,7,60,0
19690,-2,-9,-10,19,4,9,18,-12,0
19695,1,-18,-10,5,-26,-12,-13,-38,0
19700,5,-15,13,18,-3,-6,-10,44,0
19705,15,-2,7,-19,-14,-6,-10,-39,0
19710,5,7,-6,-24,5,9,3,-63,0
19715,3,10,-9,2,18,18,8,70,0
19720,6,-5,9,19,23,6,2,127,0
19725,1,-23,-7,8,3,-6,-14,27,0
19730,0,-23,-12,0,-3,-18,-12,-127,0
19735,-3,-7,-9,27,26,1,4,3,0
19740,0,-7,7,26,22,4,6,45,0
19745,-7,-4,2,-33,-25,-28,-13,-99,0
19750,-15,-6,-4,-31,-29,-17,-7,-115,0
19755,-13,11,1,-15,-12,4,10,-39,0
19760,9,57,8,4,6,30,18,87,0
19765,7,50,6,-2,-12,14,3,-44,0
19770,-12,16,-4,10,2,8,11,-52,0
19775,-17,9,5,-11,-31,-30,-2,-56,0
19780,-14,-10,1,22,16,4,1,-26,0
19785,-7,-39,-3,-3,0,0,1,-115,0
19790,-12,-23,1,1,16,5,6,-69,0
19795,-17,-18,-3,-16,-7,-2,-5,13,0
19800,-3,2,4,-9,-8,-14,1,-8,0
19805,17,10,-1,0,-9,2,-3,-8,0
19810,30,-9,-8,6,7,21,5,-63,0
19815,29,-4,-4,9,25,26,2,12,0
19820,17,-4,0,-12,2,3,-9,28,0
19825,-8,-16,0,-4,5,-18,-10,2,0
19830,-8,-16,-1,2,8,-15,-5,64,0
19835,-12,-14,-2,13,17,-5,0,24,0
19840,-21,-4,-3,3,4,1,-5,60,0
19845,-14,14,-3,5,-8,2,-3,12,0
19850,1,22,-2,9,1,15,10,-24,0
19855,-6,13,-7,4,-6,9,-1,-59,0
19860,-12,-5,0,-10,-12,-10,-6,-84,0
19865,4,2,2,-9,6,0,-1,53,0
19870,-10,1,-1,-4,0,8,10,77,0
19875,7,-2,-1,4,5,1,4,30,0
19880,2,-3,4,4,-4,-5,1,37,0
19885,-1,-2,-2,0,-10,-6,4,57,0
19890,21,6,-3,-3,-13,-6,4,68,0
19895,1,0,-4,7,-3,9,4,2,0
19900,8,-10,-1,5,2,-9,0,8,0
19905,4,-2,6,-8,-3,-6,-7,14,0
19910,3,-11,4,-2,5,-9,-2,34,0
19915,7,-1,-3,2,-2,-12,1,-12,0
19920,-3,10,-1,8,-1,0,0,-6,0
19925,-6,0,2,6,-3,3,-2,25,0
19930,-10,5,-6,-6,0,10,5,23,0
19935,2,8,-2,-8,-1,14,1,-19,0
19940,2,8,0,-8,-1,7,-6,-6,0
19945,5,10,-2,1,0,-1,4,11,0
19950,7,2,1,-2,2,9,-1,11,0
19955,2,-1,4,-6,-5,6,-3,-22,0
19960,-6,-4,-1,-1,5,-5,-4,-8,0
19965,-2,7,-6,-5,-2,-7,-6,5,0
19970,-14,-9,-4,0,3,-4,-2,6,0
19975,-13,-32,-11,-4,-4,-18,-4,-5,0
19980,-8,-11,-6,-1,-4,-15,-1,-5,0
19985,0,-6,-3,2,-5,-5,2,2,0
19990,17,-2,0,6,1,0,2,6,0
19995,6,-3,0,-3,-4,2,-1,-8,0
20000,22,-15,1,-2,-6,-4,-11,-5,0
20005,9,0,0,-9,-5,2,0,-2,0
20010,-1,11,2,0,1,5,3,2,0
20015,-12,10,0,2,1,6,9,-6,0
20020,-13,10,-2,-2,-7,-6,1,-5,0
20025,-12,13,3,2,-46,2,24,3,0
20030,-12,12,-4,-34,43,41,44,3,0
20035,21,-17,-1,-15,9,77,10,-6,0
20040,44,-108,28,47,11,-14,-11,-3,0
20045,-100,95,-10,-102,34,3,-57,1,0
20050,-115,-8,-8,32,-59,-76,3,1,0
20055,-85,-26,-16,67,-54,-128,10,-7,0
20060,70,-61,22,-83,53,-13,61,-3,0
20065,14,-128,3,39,18,55,-37,0,0
20070,55,-48,0,4,14,111,-27,1,0
20075,84,17,-18,-25,26,-33,-61,-1,0
20080,40,9,-32,-27,-56,-87,-38,-3,0
