Timestamp, Rotation x, Rotation y, Rotation z, Marker
40,-51.6875,-204.062,154.25,0
60,-26.4375,-296.562,185.188,0
80,-21.875,-346.625,251.875,0
100,9.6875,-421.75,297.25,0
120,-43.0625,-349.125,132,0
120,-15.125,-138.062,70.375,0
160,-10.125,-55.9375,68.75,0
180,-44,70.875,25.0625,0
200,-48.5,104.812,45.3125,0
220,-62.3125,41.6875,64.9375,0
240,-33.8125,-25.9375,78,0
260,17.5625,-69.8125,118.438,0
280,-37,-16.125,94.625,0
300,-36.8125,45.8125,35.625,0
320,5.875,167.125,79.75,0
340,-55.0625,203,10,0
360,44.4375,198.312,-87,0
380,25.9375,208.625,-69.375,0
400,28.875,250.312,-42.5625,0
420,42.1875,268.812,-27.9375,0
440,79.5,266.875,-42.5,0
460,167.188,224.625,13.875,0
480,156.312,182.25,18.4375,0
500,133,120.125,2.8125,0
520,116,45.25,19,0
540,115.5,3.625,11.9375,0
560,95,52.625,9.75,0
580,74.75,72.1875,21.875,0
600,87.625,75.4375,9.625,0
620,91.8125,79.125,-1.75,0
640,103.125,54.25,0.8125,0
660,158.812,22.375,1.5625,0
680,170.75,-10.1875,-10.0625,0
700,174.062,2.9375,-30.9375,0
720,199,28.6875,-7.1875,0
740,194.438,42.5,-11.75,0
760,214.562,20.375,21.4375,0
780,208.688,7,28.6875,0
800,189.062,-70.5,50.4375,0
820,191.5,-151.438,88,0
840,154.125,-180.312,88.1875,0
860,147.562,-165.312,65.25,0
880,97.9375,-94.6875,64.25,0
900,29.875,-1.875,56.5,0
910,-4.125,50.6875,51.0625,0
930,97.6875,-10.8125,44.9375,0
950,60.5625,-52.875,44.5625,0
970,3.9375,-54.8125,23.5625,0
990,9.1875,-25.875,-10.375,0
1010,0.1875,-13.0625,-30.875,0
1030,0.375,-11.1875,-34.5,0
1050,4.5625,-14.625,-19.8125,0
1070,-22.5625,10.4375,-19.625,0
1090,-40.3125,13.875,-2.6875,0
1110,-33.4375,-2.5,14.5,0
1130,-19.875,-16.3125,0.6875,0
1150,-10.6875,-36.125,-12.875,0
1170,-0.9375,-41.125,-14.6875,0
1190,-1.875,-33.125,-7.5625,0
1210,-17.3125,-33.0625,12.3125,0
1230,-9.9375,-28.8125,24.4375,0
1250,-1.8125,-37.875,16.125,0
1270,-14.6875,-44.6875,10.4375,0
1290,3.125,-41.6875,9.25,0
1310,8.375,-31.125,-5.5,0
1330,-0.5,-20.3125,-22.875,0
1350,21.75,6.125,-22.4375,0
1370,18.625,18.875,-12.1875,0
1390,10.9375,25.625,1.5625,0
1410,20.4375,18.375,3.5625,0
1430,17.375,5.9375,-2.3125,0
1450,11.75,-9.3125,-8.1875,0
1460,12.625,1.375,-6.3125,0
1480,4.5625,9.25,-0.25,0
1500,-0.9375,2.125,1.25,0
1530,8.9375,2.75,-4.625,0
1550,6.5,-4.25,-13.625,0
1570,-3,-10.3125,-7.375,0
1590,1,-7.4375,0.125,0
1610,-7.4375,-6.625,-1.625,0
1620,0.25,-9.375,1.125,0
1650,0.1875,-15.5,9.5625,0
1670,3.5,-23.4375,5.125,0
1680,6.875,-27.125,0.5,0
1700,11.6875,-30.4375,0.125,0
1720,17.6875,-25.6875,-10.5,0
1740,15.125,-18.75,-10.0625,0
1740,15.5625,-7.75,-8.25,0
1760,3.0625,-10.0625,-3.75,0
1780,6.1875,-11,-5.4375,0
1780,4.5,-13,-11.125,0
1800,-0.1875,-16.625,-11.125,0
1820,1.125,-21.875,-17.0625,0
1830,-12.875,-28.75,-13.3125,0
1840,-11.25,-33.0625,-6.875,0
1860,-16.625,-32.0625,2.75,0
1880,-13.1875,-28.8125,0.375,0
1880,-11.6875,-19.375,-2.9375,0
1900,-10.75,-12.0625,-3.25,0
1920,-9.5625,-9.625,-5.3125,0
1940,-4.875,-10.375,-5.6875,0
1940,1.3125,-8.9375,-7.625,0
1960,1.6875,-7.9375,-10,0
1980,-0.4375,-12.875,-12,0
2000,-2.6875,-12.3125,-9.875,0
2050,-2,-14.8125,-8.75,0
2100,-6.5625,-17.75,-9.125,0
2160,-11.75,-22.75,-24.6875,0
2190,-6.375,-23.9375,-33,0
2210,-8.0625,-25.9375,-30,0
2230,-1.8125,-22.625,-24.3125,0
2250,3,-32.8125,-24.25,0
2270,-3.0625,-37.6875,-20.9375,0
2290,3.75,-27.875,-16.0625,0
2310,-4.5,-23.625,-15.6875,0
2330,-6.25,-3.6875,-17.3125,0
2350,-10.375,10.5,-21.875,0
2370,-14.0625,28.125,-31.25,0
2390,-18.8125,29.9375,-29.9375,0
2410,-18.6875,32,-23.0625,0
2430,-12.625,25.4375,-20.75,0
2450,-18.875,8.5625,-15.5625,0
2470,-8.75,5.75,-21.5,0
2490,-15.1875,4.875,-29.6875,0
2510,-19.1875,17.8125,-27.25,0
2530,-28.4375,32.4375,-30.0625,0
2550,-28.4375,35.4375,-19.3125,0
2570,-38.3125,38.1875,-13.875,0
2590,-35.5625,35.125,-10.4375,0
2610,-20.875,11.75,-13.9375,0
2630,-38.9375,0.1875,-23.5,0
2650,-14.5,-5.5,-20.375,0
2670,-17.5625,10.75,-22.5625,0
2690,-10.5625,21.3125,-35.0625,0
2710,-20.6875,31.625,-31.5625,0
2730,-18.375,26.75,-28.3125,0
2750,-17.75,-5.25,-22.375,0
2770,-14.8125,-17.5,-12.1875,0
2790,-10.5,-21,-4.875,0
2810,-11.875,-11.8125,-9.8125,0
2830,-15.3125,-1.8125,-16,0
2850,-9.75,-0.5,-17.125,0
2870,-10.9375,-4.75,-15.125,0
2890,-7.25,-2.8125,-14.625,0
2910,-9,1.125,-18.5,0
2930,-16.4375,-4.9375,-13.5625,0
2950,1.6875,-7.5625,-10.9375,0
2970,-10.875,1.3125,-17.1875,0
2990,-16,3.4375,-16.1875,0
3010,-6.0625,0.5625,-13.375,0
3030,-11.5,-0.5,-12.25,0
3050,-10.0625,-2.875,-9.75,0
3070,-11.25,0.125,-10.5625,0
3090,-9.75,2,-8.25,0
3110,-7.4375,3.5,-8.5625,0
3130,-8,3.0625,-7.0625,0
3150,-2.375,-0.3125,-1.125,0
3170,-1.8125,-1.5625,-1.5,0
3190,-1.5,-0.125,3.3125,0
3210,-1.4375,4.625,0.125,0
3230,-4.875,6.3125,-1.5625,0
3250,-2.625,6.375,0.875,0
3270,-2.9375,2.6875,3.3125,0
3290,4.1875,-3.8125,7.1875,0
3310,6.9375,-8.3125,8.875,0
3330,2.75,-9.75,15.125,0
3350,5,-8.5,16,0
3370,2.3125,-8.1875,11.5625,0
3390,0,0.1875,11.5625,0
3410,0.3125,2.1875,9.8125,0
3430,2.25,0.4375,12.1875,0
3450,7,-3.1875,20.5,0
3470,10.3125,-6.9375,21.6875,0
3490,10.4375,-7.1875,22.75,0
3510,11.6875,-0.4375,26.6875,0
3530,6.5,-1.0625,31.9375,0
3550,18.0625,-8.8125,38.625,0
3570,20.375,-17.125,52.25,0
3580,19.75,-13.5,60.5,0
3600,21.5,-17.375,49,0
3620,20.625,-13.125,35.0625,0
3640,13.9375,3.125,4.5625,0
3660,5.1875,40.875,-30.4375,0
3680,-10.1875,98.8125,-43.375,0
3700,-35.6875,134.625,-85.5,0
3720,-51.75,162.625,-80.9375,0
3740,-68.0625,168.5,-83.8125,0
3760,-42.5625,128.188,-37.375,0
3780,-18.0625,51.125,9.875,0
3800,-16.5625,9.125,16.9375,0
3820,-14.3125,5.5,8.125,0
3840,-5.8125,33.75,7.3125,0
3860,-13.8125,27.375,7.125,0
3880,-8.375,14.375,23.9375,0
3900,-3.875,-1,31.875,0
3920,-5.5,-14.9375,36.5,0
3940,-2,-18.4375,32.1875,0
3960,-5.5625,-7.6875,18.5625,0
3980,-13.5625,-9.3125,7.125,0
4000,-0.1875,-8.3125,17.0625,0
4020,-3.3125,-18.6875,21.9375,0
4040,1.8125,-16.5,34.125,0
4060,4.625,-14.75,31.3125,0
4080,7.0625,-13.125,34.6875,0
4100,5.3125,-7.625,30.125,0
4120,6.875,-12.875,27.375,0
4140,-1.0625,-20.3125,24.125,0
4160,-6.1875,-34.375,27.5,0
4180,-15.5,-35.1875,39.0625,0
4200,-23.6875,-55.875,41.375,0
4220,-37.4375,-72.875,43.375,0
4240,-59.5625,-85.6875,42.375,0
4260,-54,-96.25,61.3125,0
4280,-80.3125,-124.438,60.125,0
4300,-61.0625,-126.562,78.75,0
4320,-69,-80.625,56.1875,0
4340,-58.5,-42.5,45.5,0
4360,24.375,-24.5625,-8.8125,0
4380,-64.25,-72.3125,76.9375,0
4400,-107.688,-75.375,24.625,0
4420,-10.6875,-49.0625,8.8125,0
4440,-71.5625,-1.9375,-18.1875,0
4460,-95.4375,29.3125,-67.0625,0
4480,-87.125,61.1875,-54.75,0
4500,-175,86.875,-77.6875,0
4520,-101.375,45.5625,-44.625,0
4540,-153.812,-42.6875,-7.375,0
4560,-122.438,-32.5625,-2.375,0
4580,-91.5,10.4375,-19.1875,0
4600,-76.8125,27.1875,-20.0625,0
4620,-75.25,13.5625,-20,0
4640,-66.5625,2.3125,-14,0
4660,-58.875,-9.875,-4.1875,0
4680,-35.875,-13.625,0.75,0
4700,-17.1875,-11.3125,1.125,0
4720,-23.6875,-8.75,-1.3125,0
4740,-16.25,-11.375,6.875,0
4760,-10.125,-0.6875,4.0625,0
4780,-15.5,0,6.0625,0
4800,-9.6875,8.125,4,0
4820,-5.875,23.125,-3.875,0
4840,-5.9375,21,-7.4375,0
4860,-10.875,1.8125,-5.75,0
4880,-5,-24.0625,-2.125,0
4900,10,-29.1875,2.6875,0
4920,43.875,-19.6875,1.75,0
4940,112.312,-29.75,16.75,0
4960,130.375,-58.1875,37,0
4980,169,-98.6875,58.4375,0
5000,135,-149.562,93.6875,0
5020,170.125,-202.188,213.438,0
5040,139.25,-197.875,339.062,0
5060,175.75,-282.938,457.812,0
5080,76.4375,-475.375,383.875,0
5100,5.1875,-243.375,156.312,0
5120,44.5,-77.875,39.8125,0
5140,13.3125,49.75,-43.0625,0
5160,21.625,97.6875,-19.6875,0
5180,-24.0625,118.688,20.5625,0
5200,-53.25,87.4375,41.375,0
5220,-68.8125,77.1875,66.6875,0
5240,-69.625,7.75,42.875,0
5260,-92.25,-54.875,45.8125,0
5280,-114.062,-91.125,-0.5,0
5300,-144.75,-97.8125,-41.1875,0
5320,-196.75,-38.25,-54.125,0
5340,-329.938,-36.625,58.9375,0
5360,-309.688,177.188,-65.1875,0
5380,-169.812,300.125,-108.25,0
5400,-229.812,145.625,-57.8125,0
5420,-126.625,76.125,3.5,0
5440,70.9375,72.5,9.625,0
5460,21,91.25,15.625,0
5480,4.0625,137.938,-26.1875,0
5500,68,193.688,-39.125,0
5520,88.875,137.25,4.0625,0
5540,162.938,131.188,-1.375,0
5560,146.125,221.938,-55.375,0
5580,141.312,214.125,-53.4375,0
5600,177.062,162.688,-27.5625,0
5620,158.562,160.438,-55.625,0
5640,143.688,167.75,-113.062,0
5660,138.688,184.5,-144.062,0
5680,136.562,175.562,-180.438,0
5700,150.25,190.938,-238.375,0
5720,206.312,244.25,-193.188,0
5740,164.375,134.188,-169.062,0
5760,160.562,86.8125,-179.312,0
5780,171.375,83.6875,-179.062,0
5800,215.875,149.25,-196.562,0
5820,304.625,167.625,-198.625,0
5840,267.688,66.5625,-238.062,0
5860,298.5,138.875,-107.438,0
5880,276.188,186.25,-42.25,0
5900,211.375,100.75,-31.875,0
5920,208.25,112.188,23.5,0
5940,393.125,179.125,368.75,0
5960,97.8125,325.25,195.438,0
5980,108.75,182.75,216.375,0
6000,109.562,174.438,146.438,0
6020,86.6875,163.25,172.562,0
6040,39.375,98.1875,180.562,0
6060,-47.375,-13.9375,79.0625,0
6080,-155.062,-41.75,-55.6875,0
6100,-258.812,-3.8125,-4.875,0
6120,-350.812,40.5,55,0
6140,-422.375,6.875,135.625,0
6160,-512.5,-53.9375,123.688,0
6180,-466.562,-83.5625,46.1875,0
6200,-259.062,-110.938,125.062,0
6220,-267.25,-47.6875,118.312,0
6230,-128.812,-7.6875,97.75,0
6250,-7.4375,-46.9375,93.625,0
6270,141.75,-70.6875,158.938,0
6290,184.688,-76.4375,245.438,0
6310,258.938,-78,362.188,0
6330,197.562,-128.562,425.125,0
6350,114.75,-181.562,432.625,0
6370,187.188,-90.75,322.562,0
6390,175.375,-28.9375,134.312,0
6410,-17.5,44.875,-23.3125,0
6430,-188.562,165.562,-1.625,0
6450,-210.125,293.625,53.5,0
6470,-47.625,229.188,119.938,0
6490,-13.8125,85.0625,82.375,0
6510,-65.25,-23.6875,32.0625,0
6530,-108.062,-80.1875,42.3125,0
6550,-125.625,73.625,182.25,0
6570,88.25,-57.0625,217.375,0
6590,125,-56.625,-137.375,0
6610,62.8125,138.688,224.688,0
6630,184.875,15.1875,-26.8125,0
6650,80.3125,-78.3125,-23.5,0
6670,-96.3125,-21.125,-23.1875,0
6690,-64.25,-87.8125,-35.4375,0
6710,-79.25,-71.4375,-49.3125,0
6730,-113.312,-128.25,78.375,0
6750,-105.812,-113.562,213.812,0
6770,-32.875,-76.8125,67.0625,0
6790,41.8125,-245.25,101.625,0
6810,-19.125,-260.5,86.6875,0
6830,-7.375,-297.688,1.4375,0
6850,-32.8125,-224.062,-11,0
6870,44.625,-32.875,69.6875,0
6890,114.312,18.3125,20.5625,0
6910,70.125,0.25,49.9375,0
6930,82.4375,-55.25,95.75,0
6950,22.25,4.75,70.4375,0
6970,-13.8125,72.6875,37.4375,0
6990,11.9375,38.9375,25.5,0
7010,-16.3125,-0.0625,72.9375,0
7030,-57.1875,102.438,91.6875,0
7050,31.75,87.375,63.9375,0
7070,76.75,37.3125,-16.125,0
7090,61.125,70,-45.5,0
7110,33.25,82.125,-36.625,0
7130,27.625,73.4375,-4.625,0
7150,77.125,53.6875,55.625,0
7170,61.8125,41.0625,45.625,0
7190,26.5625,25.6875,74,0
7210,45.75,-33.6875,117.562,0
7230,56.9375,-57.125,118.812,0
7250,67,-78,183.875,0
7270,25.1875,-27.6875,193.562,0
7290,60.6875,70.75,171.125,0
7310,115.125,138.688,118,0
7330,116.5,132.625,124.75,0
7350,96.125,123,98.6875,0
7370,106.25,96.6875,77.875,0
7390,91.125,53.875,38.1875,0
7410,94.25,73.3125,17.25,0
7430,103.5,96.8125,-17.6875,0
7450,132.812,107.125,-45.75,0
7470,127.438,119.75,-53.375,0
7490,147.812,64.4375,-69.6875,0
7510,108,-8.5,-84.3125,0
7530,54.875,-31.3125,-105.312,0
7550,-1.125,-2.9375,-87.6875,0
7570,24.0625,39.0625,-92.875,0
7580,12.875,27.0625,-106.812,0
7580,18.625,-21,-89.875,0
7620,10.125,-43.6875,-71.25,0
7640,20,-61.75,-45.5,0
7660,8.1875,-32.5,7.6875,0
7680,15.9375,-3.8125,54.6875,0
7710,33.0625,32.3125,79.875,0
7730,-11.75,40.0625,68.125,0
7750,-2.5,28.625,1.9375,0
7770,15.3125,20.5625,-0.3125,0
7790,-31.3125,45.25,19.375,0
7810,-50.125,-21.8125,-24.75,0
7830,29.75,-91.6875,-85.375,0
7850,2.375,-34.3125,-81.875,0
7870,-52.25,-63.1875,-45.4375,0
7890,16.5625,42.875,-38.5625,0
7910,-36,26.375,12.625,0
7930,-16.75,-13.875,16.4375,0
7950,11.75,-33.75,24,0
7970,121.062,7.5625,28.9375,0
7990,35.0625,53.5,42.4375,0
8010,23.75,63,40,0
8030,39.3125,24.1875,29.125,0
8050,73.9375,31.4375,40.875,0
8070,79.5,19.1875,29.6875,0
8090,32.75,26.3125,46.0625,0
8110,15.9375,26.1875,35.8125,0
8130,7.0625,-3.1875,22.4375,0
8150,-83.3125,13.6875,132.5,0
8170,-30.5,35.6875,132,0
8190,29.0625,64.25,97.8125,0
8210,56.0625,37.875,66.0625,0
8230,22.8125,-24.375,43.3125,0
8250,39.6875,-18.0625,17.625,0
8270,55.0625,-6.625,-12.1875,0
8290,-3.25,4.8125,56.25,0
8310,7.8125,5,-23.125,0
8330,7,-69.125,3.9375,0
8350,-30.375,-73.4375,-20.875,0
8370,0.5,-66.375,8.4375,0
8390,-15.1875,-7.1875,37.375,0
8410,7.625,22.5,29.375,0
8430,20.125,-5.0625,55.9375,0
8450,15.5625,1.125,25.625,0
8470,42.5,-7.5,-6.25,0
8490,50.375,-12.875,-6.9375,0
8510,36.8125,12.0625,-1.4375,0
8530,39.8125,17.5,23.1875,0
8550,66.75,32.6875,8.9375,0
8570,70.4375,33.9375,9.4375,0
8590,46.9375,59.6875,0.6875,0
8610,21.8125,84.25,4.9375,0
8630,43.4375,87.1875,-6.9375,0
8650,63.125,49,-15.25,0
8670,24.9375,22.875,-8.375,0
8690,-18.875,-8.3125,9.75,0
8700,-41.125,-16.9375,33.75,0
8720,-38.625,-4.375,20,0
8720,-3.75,4.75,-2.0625,0
8740,16.1875,2,-4.625,0
8760,14.25,0,5.6875,0
8780,6.1875,-12.6875,-5,0
8840,-21.6875,-15.375,-13,0
8840,-24.625,-14.5,-8.4375,0
8860,-24,-1.0625,1.5,0
8880,-41.0625,-20,58.8125,0
8900,-23.3125,-29,77.4375,0
8920,-24.8125,41.9375,77.625,0
8940,15.6875,44.625,35.5,0
8960,92.6875,-63.25,-67.5625,0
8980,-11.125,-105.688,21.875,0
9000,-50,-7.75,39.625,0
9020,-14.6875,-113.25,21.9375,0
9040,22.875,-26.3125,-8.75,0
9060,22.9375,-41.4375,7.3125,0
9080,6.125,-28.3125,15.8125,0
9100,19.3125,-21.3125,8.75,0
9120,43.625,-43.5,6.875,0
9140,78.75,-23.25,18.6875,0
9160,113.688,-9.8125,39.9375,0
9180,131.438,-7.5,30.9375,0
9200,86.5625,5.875,19.5,0
9220,53.0625,-13.1875,-6.3125,0
9240,46.4375,-6,-6.4375,0
9260,72.625,-2.9375,0.5,0
9280,85.0625,1.9375,10.75,0
9300,59.0625,7.875,4,0
9320,61.25,-8.4375,-17.875,0
9340,30.125,-11.9375,-15,0
9360,7.3125,2.5625,-22.3125,0
9380,21.25,2.6875,-18.3125,0
9400,31.6875,-7.625,-12.3125,0
9420,27.5,-12.6875,-13.9375,0
9440,23,-17.5,-19.5625,0
9460,-7.875,-18.375,-12.6875,0
9480,-21,-27.375,-6.9375,0
9500,-10.125,-32.6875,-12.4375,0
9520,-0.375,-23.9375,-21.9375,0
9540,1.875,-31,-34.4375,0
9560,-2.8125,-32.3125,-35.0625,0
9580,-11.6875,-28.6875,-33,0
9600,-21.875,-29,-27.8125,0
9620,-24.125,-29.3125,-20.5,0
9640,-14.8125,-29.1875,-18,0
9660,-13,-6.125,-17.25,0
9680,-12.8125,15.4375,-11.9375,0
9700,-12.625,9.75,2.9375,0
9720,-4.0625,3.0625,23.1875,0
9740,7.3125,12.5,27.875,0
9760,24.625,25.5625,23.875,0
9780,32.125,21.375,24.9375,0
9800,14.25,3.75,27.0625,0
9820,12.4375,5.9375,24.8125,0
9840,15.25,12.125,14.8125,0
9860,12.75,18.8125,8.25,0
9880,8,30.1875,11.5,0
9900,-7.6875,15.625,10.6875,0
9920,-3.6875,5.9375,17.75,0
9940,15.875,10.0625,30.875,0
9960,21.0625,13.625,26.0625,0
9980,24.8125,20.6875,22.5,0
10000,11.8125,19.625,21.0625,0
10020,17.875,15.875,17,0
10040,14.625,14.5,21.3125,0
10060,4.125,-4.4375,19.75,0
10080,12.875,-2.125,11.5,0
10100,17.375,-6.0625,3.8125,0
10120,25.8125,-5.5,-0.8125,0
10140,16.3125,0.3125,7.875,0
10160,-4.9375,-0.75,21.6875,0
10180,-15.6875,0.375,38.8125,0
10200,-9.75,1.75,34,0
10220,-0.9375,9.625,20.8125,0
10240,0.3125,26.6875,13.875,0
10260,5,35.5625,6.5,0
10280,14.9375,44.1875,17.6875,0
10300,11.5625,9.0625,24.3125,0
10320,-2.5,-1.875,5.9375,0
10340,2.75,24.9375,-13.125,0
10360,15.1875,23.8125,2.625,0
10380,0.3125,16.1875,24.5625,0
10380,9.6875,13,29.6875,0
10400,11.0625,7.125,19.625,0
10420,15,2.75,7,0
10440,22.625,-9.3125,1.875,0
10460,8.75,-18.25,1.0625,0
10460,2,-21.4375,-5.75,0
10480,7.5,-16,-14.625,0
10500,-1.625,-17.3125,-20.125,0
10500,-8.8125,-21.1875,-21.625,0
10520,-12.1875,-26.5,-16.4375,0
10540,-4.6875,-18.3125,-20.8125,0
10560,-6.5625,-14.0625,-14.625,0
10560,-8.9375,-14.875,-16.4375,0
10580,-21.125,-19.25,-16.1875,0
10600,-40.5,-32,-16.4375,0
10620,-41.3125,-44.25,-14,0
10620,-44.375,-39.1875,-7.875,0
10640,-35.1875,-35.3125,-8.125,0
10660,-8.875,-27.6875,-7.625,0
10680,-20.9375,-22.625,-7.4375,0
10680,-27.4375,-18.8125,-6.25,0
10700,-17,-13.4375,-6.4375,0
10720,-12.75,-5.0625,-5.625,0
10730,-15.5,3.125,-4.0625,0
10740,-11.6875,0.625,-10.6875,0
10760,-11.25,-3.4375,-11.25,0
10780,-10.1875,-0.9375,-5.25,0
10780,-4.5,3.3125,4.5,0
10800,-9.9375,6.8125,6.0625,0
10820,0.9375,-8.25,-1.0625,0
10840,1.3125,-15.3125,0.375,0
10860,1.5625,-14.6875,2.375,0
10860,9.9375,-5.875,-0.6875,0
10880,0.5625,5.375,1.75,0
10900,-3.4375,10.375,9.875,0
10920,6.875,11.5,11.0625,0
10920,13.3125,5.625,11.5,0
10940,6.8125,9.125,25.6875,0
10980,7.75,24.4375,25.5,0
11020,32.4375,37.1875,23.875,0
11080,7,23.875,48.5,0
11140,15.4375,8.75,48.8125,0
11180,25.875,9.625,43.4375,0
11240,24,15.75,37.5,0
11280,26.6875,4.25,25.8125,0
11300,20.125,-3.0625,38.4375,0
11320,0.625,-12,39.8125,0
11340,-11.1875,-10.375,40.5625,0
11360,-22.3125,-13,14.875,0
11380,-25.5625,-50.4375,-23.3125,0
11400,-39.0625,-66.1875,-25.5625,0
11420,-52.5625,-38.3125,-0.625,0
11440,-39.1875,3.3125,18.375,0
11460,-29.6875,0,2.0625,0
11470,-41.875,-20,-29.5,0
11490,-53.125,-26.4375,-10.6875,0
11510,-36.0625,-8.625,16.5,0
11530,-9.625,-6.3125,12,0
11550,-11.875,-4.875,-8.6875,0
11570,-30.6875,-1.25,-12,0
11590,-29.375,-10.125,-0.6875,0
11610,-36.375,-25.5,-3.9375,0
11630,-20.75,-9.8125,-2.875,0
11650,9.8125,10.5625,-2.3125,0
11670,-11.5,-3.9375,0.4375,0
11690,-15.3125,9.4375,-1.5625,0
11710,-11.3125,15.375,-1.0625,0
11730,-19.8125,18.375,9,0
11750,-16.4375,-11.8125,0,0
11770,9.4375,-21.25,-4.875,0
11790,-0.875,-25.1875,-8.9375,0
11810,2.75,-32.8125,-20.8125,0
11830,-4.5,-32.125,-26.5,0
11850,-6.75,-31.3125,-31.75,0
11870,-6.3125,-35.5,-40.8125,0
11890,10.6875,-34,-31.625,0
11910,26.8125,-25.5,-22.875,0
11930,45.625,-30.75,-30.6875,0
11950,40.375,-34.3125,-27.6875,0
11970,37.5,-19.9375,-24.8125,0
11990,25.8125,-26.625,-29.375,0
12010,2.875,-22.5,-14.1875,0
12030,10.5,-27.3125,-11,0
12050,21.25,-27.0625,-16.625,0
12070,3.9375,-21.8125,-19.0625,0
12090,-1.1875,-20.4375,-6.875,0
12110,2.5625,-15.25,-0.25,0
12130,13.3125,10.4375,0.8125,0
12150,12.8125,36.25,3.8125,0
12170,-0.25,30.0625,-7.9375,0
12190,-12.9375,10.9375,4.0625,0
12210,-9.1875,13.1875,11.3125,0
12230,-4.0625,17.75,8.1875,0
12250,18.4375,-1.5625,-0.1875,0
12270,12.5625,-28.625,7.1875,0
12290,-2.8125,-46.8125,23.625,0
12310,6.5625,-38.875,27.25,0
12330,10.25,-28,23.3125,0
12350,10.75,-9.4375,38.875,0
12370,-14.75,-23.125,33.5625,0
12390,-6.5,-38.25,-9.5625,0
12410,7.6875,17.25,19.0625,0
12430,-9.5,52.1875,54.6875,0
12450,-23.75,13.1875,40,0
12470,-22.8125,-17.875,23.875,0
12490,-18.625,43.4375,26.375,0
12510,-2.6875,62.625,53.625,0
12530,-9.0625,80,51.625,0
12550,-27.3125,44.3125,24.1875,0
12570,-18.9375,18.75,31.625,0
12590,-12.6875,13.1875,39,0
12610,-12.125,-5.5,12.4375,0
12630,9.0625,1.25,1.75,0
12650,-2.1875,1.9375,-6.75,0
12670,-4.75,10,-25.3125,0
12690,-8.75,0.625,-21.4375,0
12710,5.0625,-12.125,-13.25,0
12730,0,-9.0625,-13.5625,0
12750,21.3125,10.875,-4.4375,0
12770,30,0.25,-2.4375,0
12790,31.8125,-2.8125,-21.6875,0
12810,30.75,-3.5,-23.5,0
12830,15,-5,-10.8125,0
12850,12.375,1.5625,-13.5625,0
12870,15.6875,3.1875,-17.8125,0
12890,8.6875,2.875,-12.875,0
12910,5,-17.75,-8.875,0
12930,-2.8125,-16.375,-12.4375,0
12950,6.125,-11.875,-18.9375,0
12970,-3.5,7.1875,-15.0625,0
12990,-9.625,-2.5,-16.375,0
13010,-2.3125,-7,-15.5,0
13030,4,-1,-14.75,0
13050,-2.875,4.5,-9.5625,0
13070,-12.25,8.875,0.0625,0
13090,-17.25,8,0.9375,0
13110,-15.75,0.5,-0.75,0
13130,8.3125,7.625,3.375,0
13150,20.125,13.375,10.5625,0
13170,14.0625,1.625,9.625,0
13190,-7.5625,-18.1875,10.8125,0
13210,-26.0625,-37,15.375,0
13230,-7.5625,-23.125,28.25,0
13250,23.1875,7.9375,32.375,0
13270,26,26.1875,20.4375,0
13290,20.4375,38.0625,15.9375,0
13310,-4.1875,64.8125,17.4375,0
13330,-0.6875,118.125,34.25,0
13350,-25.875,172.188,42.25,0
13370,-66.125,-1.3125,24.625,0
13390,20.5,8.875,14.25,0
13410,53.4375,-38.375,-27.125,0
13430,25.0625,-74.125,-102.125,0
13450,-11.5,-45.75,-51.5625,0
13470,-80.75,-87.0625,3.625,0
13490,-127.938,-128.688,-6.875,0
13510,-66.5625,-19.4375,-31,0
13530,-80.1875,65.0625,16.0625,0
13550,-141.75,39.6875,52.3125,0
13570,-170.25,40.8125,18.375,0
13590,-225.75,80.1875,12.5,0
13610,-282.25,68.8125,15.0625,0
13630,-337.812,85.75,36.375,0
13650,-361.812,100.25,70.125,0
13670,-390.812,129.625,64.875,0
13690,-360.188,133.938,64.75,0
13710,-370.062,119.438,54.1875,0
13730,-398.688,65.625,-35.9375,0
13750,-396.5,19.0625,-75.9375,0
13770,-272.5,79.9375,-14.75,0
13790,-105.938,-23.5625,111.875,0
13810,-116.562,-28.5625,70.8125,0
13830,58.75,-9.625,-11.375,0
13850,120.938,-39.6875,-39.75,0
13870,57.0625,-101.25,-115.062,0
13890,32.5,-108.375,-114.688,0
13910,32.25,-104.438,-66.3125,0
13930,-35.125,-72,-2.8125,0
13950,-62.4375,18.4375,14.75,0
13970,-55.375,88.4375,-14.75,0
13990,-83,60.875,-51.625,0
14010,-55.0625,34.125,-128.188,0
14030,-3.3125,-45.125,-217,0
14050,29.5625,-64.5,-271.312,0
14070,23.375,-52.375,-375.625,0
14090,75.1875,-68.75,-431.562,0
14110,140,-99.125,-366.938,0
14120,145.375,-71.25,-294.625,0
14140,96.1875,9.125,-226.625,0
14160,80.125,81.5625,-221.625,0
14180,29.3125,-77.6875,-93,0
14200,34,27.4375,-85.5625,0
14220,39.3125,167.812,-133.875,0
14240,-70,28.375,-52.1875,0
14260,-46.875,-45.3125,28.5625,0
14280,6.4375,-34.6875,24.5625,0
14300,20.75,-47.25,-10,0
14320,25.625,-42.1875,-22.1875,0
14340,5.1875,-41,14.5625,0
14360,-18.25,-36.25,11.5625,0
14380,-62.0625,-29.3125,-6.5625,0
14400,-67.5,-25.125,-6.4375,0
14420,-81.5625,-33.75,3.125,0
14440,-59.0625,-29.25,12.0625,0
14460,-50.4375,-13.125,4.75,0
14480,-34.5625,-0.25,-8.25,0
14500,-3.3125,-7.375,-4.5625,0
14520,-5.9375,-18.5,-8.1875,0
14540,-11.6875,-17.625,-11.8125,0
14560,0.8125,1.9375,-5.5,0
14580,-4.5625,15.3125,-4.1875,0
14600,-15.5,6.6875,6.0625,0
14620,-11.625,-4.25,2.5,0
14640,-11.125,-15.4375,-2.5,0
14660,-1.25,-30.875,-0.25,0
14680,-2.5625,-22.4375,4.375,0
14700,4.125,-15.5,-3.0625,0
14720,2.6875,-5.4375,-9.3125,0
14740,-0.25,-7.9375,-2.3125,0
14760,-8.6875,-16.5,14.625,0
14780,-3.875,-4.375,21.8125,0
14800,-2.5,6.5625,5.75,0
14820,-0.125,-2.4375,-4.5625,0
14840,4.5625,-10.375,3.0625,0
14860,-1.4375,-11.1875,1.3125,0
14880,-3.1875,3,0.9375,0
14900,-5.25,9.375,-3.125,0
14920,-0.125,7.125,-3.3125,0
14940,1.8125,-0.125,-0.0625,0
14960,4.4375,-3.6875,3.375,0
14980,0.1875,-4.1875,8.375,0
15000,-0.0625,4.8125,8.6875,0
15020,-1.9375,5.3125,-2.1875,0
15040,-1.75,-4.1875,-1.8125,0
15060,-5.375,-8.375,2.3125,0
15080,-5.3125,-2.5625,3.5625,0
15100,-4.8125,2.1875,-3.1875,0
15120,-4.9375,-2.5625,-0.8125,0
15140,-5.875,-3.4375,19.875,0
15160,0.8125,11.9375,11.75,0
15180,-6.25,24.1875,13.875,0
15200,-4.1875,24.6875,19.9375,0
15220,-2.1875,24,11.4375,0
15240,-6.6875,15.8125,8.1875,0
15260,-1.1875,8.875,3.9375,0
15280,-1.1875,4.6875,-4.0625,0
15300,-15.3125,-1.6875,-2.875,0
15320,-10.25,-25.5625,-4.9375,0
15340,-2.9375,-31.8125,-4.6875,0
15360,-0.1875,-41.375,-21.75,0
15380,1.75,-55.1875,-32.75,0
15400,-3.875,-66.25,-51.3125,0
15420,-2.25,-69.375,-57.625,0
15440,5.875,-77.875,-66.5,0
15460,2.375,-96.75,-44.3125,0
15480,-7.3125,-99.5,-54.5,0
15500,14.625,-91.5625,-74.875,0
15520,16.8125,-69.9375,-104.875,0
15540,8,-86.875,-134.938,0
15560,8,-106.438,-104.125,0
15580,24.875,-83.25,-74.1875,0
15600,48.125,-53.0625,-64.375,0
15620,47.375,-57.375,-39.875,0
15640,41.75,-54.9375,-10.375,0
15660,49.3125,-40.3125,0.625,0
15680,62.6875,-25.75,-16,0
15700,58.3125,-18.9375,-26.75,0
15720,50.1875,6.5625,0.1875,0
15740,40.3125,7.9375,24.75,0
15760,34.5625,0.5,12.5625,0
15780,22,0.375,-4.0625,0
15800,6.9375,-5.9375,-5.75,0
15820,-4.9375,-10.6875,23.5,0
15840,-1.125,7.9375,33.9375,0
15860,7.4375,10.6875,3.4375,0
15880,-0.125,7.8125,-12.125,0
15900,-12.125,5.5,-12.3125,0
15920,-3.3125,-1.4375,-0.125,0
15940,-1.0625,7.0625,25.5,0
15960,-2.4375,12.4375,23.1875,0
15980,-6.0625,13.5,3.25,0
16000,-7.125,14.0625,-8.1875,0
16020,4.375,5.3125,-4.0625,0
16040,3.5625,-4.5,29.0625,0
16060,4.8125,5.0625,37.6875,0
16080,5.9375,11.1875,10.5625,0
16100,-6.625,12.25,-9.1875,0
16120,-10.25,29.75,-13.8125,0
16140,-9.625,1.5625,5.3125,0
16160,-8,-18.6875,31.8125,0
16180,7.5625,-9.9375,35.375,0
16200,11.0625,-6.25,31.75,0
16220,-22.8125,-43.875,11.3125,0
16240,-52.5,-45.8125,0.5625,0
16260,-61.6875,-26.8125,0.125,0
16280,-47.4375,-19.4375,-8.25,0
16300,-35.5,-15.375,-12,0
16320,-26.8125,-19.375,4.1875,0
16340,-50.3125,-44.375,13,0
16360,-69.375,-44.125,10.25,0
16380,-58.875,-14.8125,7.9375,0
16400,-49.1875,-1.9375,-10.3125,0
16420,-47.625,-2.875,-10.3125,0
16440,-28.25,-8.875,15.1875,0
16460,-48.6875,-66.0625,59.375,0
16480,-97.625,-107.5,69.625,0
16500,-90.1875,-48.875,62.5,0
16520,-122.875,17.8125,-18.125,0
16540,-81.5,51.9375,-54.8125,0
16560,-32.625,13.1875,-45.75,0
16580,-37.4375,-20.1875,10.375,0
16600,-29.1875,-15.375,32.0625,0
16620,-49,26.125,48.4375,0
16640,-26.5,95.6875,55.5,0
16660,-6.6875,47.5,115.375,0
16680,-81.125,27.625,61.875,0
16700,-64,-66.8125,32.5625,0
16720,-13.9375,-108,14.375,0
16740,-83.5,-97.75,9.625,0
16750,-133.5,-90.1875,30.6875,0
16770,-92.5625,-75.4375,54.5625,0
16790,-78.5625,-102.312,33.875,0
16810,-93.875,-120.812,25.25,0
16830,-121.688,-116.438,36.125,0
16850,-169.562,-98.625,31.5625,0
16870,-182.812,-81.1875,10.5,0
16890,-170.812,-83.5625,-25.9375,0
16910,-179.625,-66.8125,-51.75,0
16930,-173.938,-58.8125,-40.25,0
16950,-167.562,-57.8125,-9.625,0
16970,-162.312,-50.1875,4.5,0
16990,-133.625,-26.0625,-10.5,0
17010,-113.125,-5.5,2.1875,0
17030,-81.4375,-10,29.8125,0
17050,-70.125,-30,34.1875,0
17070,-73,-15.1875,17.25,0
17090,-54.75,-15.0625,-11.4375,0
17110,-70.3125,9.25,-31.875,0
17130,-61,44.4375,-61.375,0
17150,-7.5,54.8125,-71.9375,0
17170,15.1875,51.3125,-61.8125,0
17190,20.6875,14,-14.0625,0
17210,20.6875,-72.6875,69.6875,0
17230,-19.3125,19.3125,94.4375,0
17250,-7.0625,22.75,26.875,0
17270,19.9375,12.75,12.4375,0
17290,103,-51.6875,34.875,0
17310,218.312,17.625,-33.625,0
17330,165.062,-21.5,-23.375,0
17350,-151.438,70.125,-6.9375,0
17370,-67.0625,-4.125,11.5625,0
17390,82.6875,17.625,-29.9375,0
17410,-22.5,20.9375,-23.25,0
17430,-3.625,-10.875,20.5,0
17450,-9.4375,14.6875,0.25,0
17470,-10.1875,-2.5625,-13.3125,0
17490,-2.1875,-3.75,-9.125,0
17510,7.5625,2.75,16.3125,0
17530,-1.3125,5.8125,-0.5,0
17550,5.1875,-15.125,-11.8125,0
17570,3,2.75,4.75,0
17590,-3.375,7.0625,10,0
17610,4.3125,-6.6875,-6,0
17630,-7.1875,-0.125,-7.625,0
17650,0.8125,7.125,9.625,0
17670,-0.5,-7.875,-1.3125,0
17690,-2.625,2.25,-10.875,0
17710,-2.0625,0.6875,3.9375,0
17730,9.25,0.4375,11.8125,0
17750,-5.75,-3.3125,-4.375,0
17770,2.25,0.9375,-4.9375,0
17790,-0.5,-0.75,2.75,0
17810,0.25,1.5,2.6875,0
17830,-1.25,-1.625,-3.5,0
17850,1.125,1.75,0.0625,0
17870,-1.1875,-0.8125,2.5,0
17890,1.625,0.0625,-1.6875,0
17910,-1.9375,0.9375,-0.8125,0
17930,3.5625,-1.375,2.0625,0
17950,-2.4375,0.25,-0.5,0
17970,1.125,0.625,-1.25,0
17990,-0.3125,-0.6875,1.0625,0
18010,0.3125,0.625,0.0625,0
18030,-0.5,-1.1875,-1.1875,0
18050,1.125,0.6875,0.8125,0
18070,-1.4375,-0.125,0.3125,0
18090,1.6875,-0.4375,-0.5,0
18110,-1.3125,0.125,-0.1875,0
18130,1.125,0.125,0.75,0
18150,-0.6875,-0.8125,-0.3125,0
18170,0.9375,0.5625,-0.3125,0
18190,-0.9375,-0.0625,0.5625,0
18210,1.5625,-0.3125,0.125,0
18230,-1.6875,0.1875,-0.75,0
18250,1.1875,0.25,0.3125,0
18270,-0.625,-0.5,-0.25,0
18290,0.6875,0.8125,0.25,0
18310,-0.375,-0.875,-0.1875,0
18330,0.3125,0.8125,0.1875,0
18350,-0.1875,-0.6875,0.1875,0
18370,0.375,0.375,-0.125,0
18390,-0.4375,-0.8125,-0.125,0
18410,0.1875,0.625,-0.125,0
18430,-0.1875,-0.125,0.25,0
18450,0.125,-0.3125,-0.5625,0
18470,0.375,-0.3125,0.4375,0
18490,-0.5625,0.4375,-0.3125,0
18510,0.875,-0.5625,0.3125,0
18530,-1.125,0.875,-0.5625,0
18550,0.8125,-0.8125,0.4375,0
18570,-0.5625,0.625,-1.125,0
18590,0.375,-0.8125,-0.6875,0
18610,0.4375,0.125,1.875,0
18630,-0.125,1.375,0.5,0
18650,0.25,-2.0625,-1.9375,0
18670,0.375,0.8125,0.25,0
18690,-1.3125,-0.0625,1.4375,0
18710,1.375,0.125,-1.1875,0
18730,-1.625,-0.875,-0.875,0
18750,1.75,0.5625,1.1875,0
18770,-1.5625,-0.5,-0.125,0
18790,1.25,-0.0625,-1.0625,0
18810,-0.3125,-0.5625,1.0625,0
18830,-0.0625,1.25,0.0625,0
18850,0.1875,-1.5,-0.4375,0
18870,0.0625,0.9375,-0.4375,0
18890,-0.625,-0.25,0.75,0
18910,1.1875,-0.1875,-0.3125,0
18930,-1.125,-0.0625,-0.5,0
18950,1.25,-0.0625,0.125,0
18970,-1.0625,0.0625,0.3125,0
18990,0.6875,0,-0.0625,0
19010,-0.4375,-0.625,-0.5625,0
19030,0.0625,0.4375,0.125,0
19050,-0.1875,-0.1875,0.3125,0
19070,0.25,-0.1875,-0.5625,0
19090,-0.5625,0,-0.3125,0
19110,0.4375,0.25,0.6875,0
19130,-0.25,-0.25,-0.1875,0
19150,0.3125,-0.25,-0.4375,0
19170,-0.375,0.1875,0.375,0
19190,0.1875,0.0625,0.3125,0
19210,-0.1875,-0.4375,-0.5625,0
19230,-0.125,0.125,-0.0625,0
19250,0,0.0625,0.625,0
19270,-0.0625,-0.1875,-0.375,0
19290,-0.1875,0,-0.375,0
19310,0.1875,0.125,0.4375,0
19330,-0.125,0.125,0,0
19350,-0.125,-0.125,-0.5,0
19370,0.25,0,0.25,0
19390,-0.1875,0.25,0.25,0
19400,-5.625,-0.625,-1.5,0
19420,20,2.1875,-1.8125,0
19440,113.312,-9.5,-8.75,0
19460,20.1875,-45.4375,-22,0
19480,-14.5,-251.312,-20.75,0
19500,36.1875,-374.438,62.75,0
19520,106.812,-159.938,77.5,0
19540,71,-29.1875,65,0
19560,176.188,187.75,33.1875,0
19580,135.625,366.125,42.6875,0
19600,195.625,362.875,50.25,0
19620,259.688,299.875,46.5,0
19640,237.438,310.625,66.4375,0
19660,258,261.688,58.0625,0
19680,206.812,304.812,41.5625,0
19700,121.438,310.5,43.8125,0
19720,120.188,179,60.125,0
19740,144.375,298,110.125,0
19760,167.75,308.75,69.25,0
19780,175.938,269.875,25.5,0
19800,110.438,194.562,-30,0
19820,99.0625,90.3125,-37.6875,0
19840,69.6875,193.75,16.6875,0
19860,27.4375,235.312,78.625,0
19880,41.5,231.375,120.562,0
19900,50.0625,168.875,80.125,0
19920,62.5,140.312,50,0
19920,29.3125,70.25,40.625,0
19940,17.6875,27.4375,36.6875,0
19960,-0.375,38.75,25.4375,0
19970,18.9375,16.25,17.9375,0
19980,16.5625,-82.625,13.875,0
20020,-246.5,-231.75,161.938,0
20060,145,144.25,-222.812,0
20080,40.75,183.25,-6.9375,0
20100,-96.8125,247.562,-37.5625,0
20120,-5.1875,70.75,75.5,0
20140,-104.625,25,82.6875,0
20160,-53.75,-16.9375,52.9375,0
20180,-5,60.0625,8.625,0
20200,34.3125,58.6875,65.875,0
20220,79.0625,6.75,123.688,0
20240,-65.8125,24.9375,102.812,0
20260,-70.8125,159.938,130.375,0
20280,-3.4375,97.25,75.3125,0
20300,19.875,68.6875,10.0625,0
20320,38.375,73.625,14.75,0
20340,30.5625,62.375,105.188,0
20360,33.5625,112.938,155.875,0
20380,-22.875,118.5,191.875,0
20400,-123.875,96.25,258.938,0
20420,-23.875,-3.0625,-25.125,0
20440,-86.125,166.625,187.688,0
20460,-158.438,418.5,-57.9375,0
20480,-76,450.438,-205.625,0
20500,-31.8125,122.688,-239.688,0
20520,-6.6875,-11.0625,46.625,0
20540,25.625,-30.875,-92.5625,0
20560,-20.25,-125.625,-94.6875,0
20580,29.6875,-99.8125,-61.5625,0
20600,50.25,-51.6875,-45.0625,0
20620,71.3125,-47.3125,-68.75,0
20640,25.1875,-84.75,-41.5625,0
20660,-3.625,-111.062,-33.1875,0
20680,7.9375,-74.3125,-23.375,0
20700,35,-40.9375,-0.3125,0
20720,53.3125,-47.8125,-3.4375,0
20740,73.125,-18.8125,-10.4375,0
20760,82.5625,28.0625,2.5625,0
20780,52,28.3125,29.1875,0
20800,14.75,10.0625,26.4375,0
20820,-11.0625,-101.312,-25.125,0
20840,14.125,-70.1875,-110.438,0
20860,-85.75,23.4375,-43.0625,0
20880,-104.625,34.9375,1.5625,0
20900,-35.3125,-21,53.9375,0
20920,24.9375,-10.3125,26.5,0
20940,-10.1875,54.75,73.375,0
20960,-47.0625,100.125,38.5,0
20980,-14.25,130.375,18,0
21000,-24.125,124.75,18.4375,0
21020,-28.3125,131.938,28.6875,0
21040,-95.375,104.125,31.75,0
21060,-85.125,33.625,30.0625,0
21080,-40.75,-73.8125,-135.25,0
21100,70.5625,97,-69.375,0
21120,77.625,86.125,12.125,0
21140,19.875,188.812,11.75,0
21160,28.5,-30.9375,-158.688,0
21180,-29.3125,-37.3125,-58.375,0
21200,-6.6875,-83.1875,-10.6875,0
21220,-28.125,-119.5,146.438,0
21240,-47.0625,-114.812,-73.125,0
21260,-13.3125,-89.625,-70.3125,0
21280,-50.375,1.4375,-99.75,0
21300,-91.4375,151.188,-132.312,0
21320,-108.438,424.5,142.062,0
21340,-46.4375,316.375,53,0
21360,108.688,186.562,65.4375,0
21380,131.688,-196.375,10.5625,0
21400,52.5,141.438,-331.875,0
21420,-119.812,356.938,-56.5625,0
21440,256.75,-140.25,-483.625,0
21460,-216.062,-372.5,23.75,0
21480,53.8125,-235.062,-53.5,0
21500,23.25,-107.688,28.375,0
21520,10,-80.9375,-23.4375,0
21540,16.3125,-64.1875,-38.875,0
21560,-20.5625,-41.5625,-45.75,0
21580,-16.5625,-23,-28.375,0
21600,-1.5,-30.1875,-21,0
21620,6.375,-34.125,-31.75,0
21640,32.3125,-55.1875,-17.25,0
21660,23.25,-45.9375,-5.8125,0
21680,-1.625,-47.6875,24.4375,0
21700,-2.25,-47.9375,21.4375,0
21720,9.75,-43,2.75,0
21740,27.375,-50.9375,-13.625,0
21760,16,-57.1875,-3.875,0
21780,-21.5,-59.125,3.4375,0
21800,-15.4375,-73.375,-9.5,0
21820,8.5,-93.625,-32.6875,0
21840,7.75,-101.875,-33.5,0
21860,1.625,-91.6875,1.875,0
21880,21.375,-68.25,20.875,0
21900,4.375,-48,1.875,0
21920,43.75,-35.5625,10.125,0
21940,45.625,-21.75,9.3125,0
21960,33.4375,-6.6875,16.0625,0
21980,66.0625,-2.3125,15.125,0
22000,122.188,1.8125,23.1875,0
22020,171.125,-10,-6.9375,0
22040,240.875,1,-13.6875,0
22050,269.75,-6.625,-39.25,0
22070,284.062,-34.5625,-81.75,0
22090,280.812,-37.5625,-94.625,0
22110,210.812,-36.875,-69.75,0
22130,107.312,-27.1875,-29.1875,0
22150,-1.375,-45.25,-8.5,0
22170,-39.9375,-44.4375,-11.375,0
22190,-30.375,-49.5625,-12.875,0
22210,-20.75,-33.4375,-8.875,0
22230,31.1875,-29.25,-3.9375,0
22250,17.125,-28.875,-5.875,0
22270,-10.4375,-22.5625,-2.625,0
22290,14.625,-22.9375,-1.9375,0
22310,2.8125,-26.0625,-10.3125,0
22330,2.8125,-23.3125,-9.8125,0
22350,5.8125,-17.3125,-5.3125,0
22370,2.3125,-17.6875,-1.75,0
22390,9.25,-14.75,9.25,0
22410,18.1875,-11.5,3.4375,0
22430,26,-9,-1.25,0
22450,27,-7.25,-7.4375,0
22470,23.875,-4.125,-5.8125,0
22490,20.75,5.75,-2.9375,0
22510,-10.125,8.375,-7.1875,0
22530,-50.9375,-1.1875,-5.8125,0
22550,-51.125,-8.75,4.5,0
22570,-16.625,-7.5625,3.8125,0
22590,18.5,-4.375,-1.375,0
22610,27,-2.625,-3.6875,0
22630,17.6875,-2.4375,-3.75,0
22650,1.75,-2.125,-1.0625,0
22670,-4.5,-0.8125,1.6875,0
22690,-0.6875,2.4375,1.9375,0
22710,4.5,3.75,2.4375,0
22730,8.0625,5.5,0.875,0
22750,5.4375,7.1875,-1,0
22770,-0.5,5.3125,-1.75,0
22790,-7.875,2,-0.375,0
22810,-4.875,1.6875,-1.25,0
22830,-1.25,0.9375,-2.375,0
22850,-0.625,2.25,-3.1875,0
22870,-3.0625,0.625,-2.25,0
22890,-5.5625,0.75,-2.25,0
22910,-4.5625,0.4375,-0.875,0
22930,-3.4375,0.3125,-1.125,0
22950,-2.3125,-0.3125,-0.5625,0
22970,-2.4375,-0.8125,0,0
22990,-3.3125,-1.375,1.3125,0
23010,-3.25,-1,2.5,0
23030,-2.75,-2.5,0.875,0
23050,-0.9375,-2.5,1.625,0
23070,2.0625,-2.1875,1.5625,0
23090,1.0625,-4.875,2,0
23110,-0.125,-5.375,2.9375,0
23130,3.125,-4.9375,2.8125,0
23150,5.5,-3.625,2.0625,0
23170,7.1875,-2.5,2.5625,0
23190,7.6875,-0.5,2.875,0
23210,10.125,8.5625,7.625,0
23230,2.3125,19.6875,11.3125,0
23250,-18.9375,30.8125,13.8125,0
23270,-6.875,46.9375,1.5,0
23290,11.3125,47.9375,-17.125,0
23310,-9.5,41.25,-37.1875,0
23330,-41.9375,40.4375,-54.5,0
23350,-52.4375,30.5625,-75.0625,0
23370,-68,15.5,-97.875,0
23390,-65.9375,-3.3125,-109.75,0
23410,-23.4375,-13,-121.562,0
23430,51.75,-14.5,-134.875,0
23450,119.125,-27.1875,-136.875,0
23470,115.688,-44.875,-124.625,0
23490,56.9375,-52.9375,-81.6875,0
23510,0.125,-55.875,-56.9375,0
23530,-31.4375,-69.1875,-48.25,0
23550,3.4375,-66.625,-30.8125,0
23570,57.125,-55.0625,-24.875,0
23590,79,-51.125,-24.0625,0
23610,58.25,-47.4375,-9.0625,0
23630,22.625,-26.4375,-3.375,0
23650,28.6875,2.1875,-5.1875,0
23660,23.9375,8.5,-7.375,0
23680,3.6875,8.1875,4.25,0
23700,1.875,5.25,10.5,0
23700,22.5625,5.25,2.0625,0
23720,34.8125,8.3125,-9.625,0
23740,17,6.5625,-9,0
23760,-9.625,7.5,3.5625,0
23760,-12.1875,7.3125,5.8125,0
23780,-1.6875,4.1875,1.0625,0
23800,6.375,3.5,-1.5625,0
23810,1.6875,3.125,-0.9375,0
23820,-5.3125,3.4375,-0.375,0
23840,-5.6875,5.5625,-2.375,0
23880,-5.6875,5.6875,-3.6875,0
23920,-0.5,4.0625,-4.5625,0
23970,-0.4375,2.9375,-3.5625,0
23990,-4.25,1.5,-2.1875,0
24010,-7.8125,1.4375,-0.25,0
24030,-5.5,1.4375,0.375,0
24050,-1.75,3.0625,1.25,0
24070,2.125,1.3125,0.75,0
24090,2.3125,0.625,2.25,0
24110,0.375,-0.125,1.4375,0
24130,-2.375,-0.75,1.9375,0
24140,-2.125,-0.875,2.625,0
24140,-0.75,-0.6875,2.0625,0
24160,0.0625,0.8125,1.875,0
24200,3.125,1.1875,0.1875,0
24220,3,-0.75,1.6875,0
24240,-1,5.125,-0.25,0
24260,-5,9.625,0.6875,0
24280,-3.125,10.4375,-0.625,0
24300,3.6875,0.1875,-1.125,0
24320,-6.0625,-8.625,2.25,0
24340,-1.6875,7.3125,-1,0
24360,-6.6875,-5.25,3.375,0
24380,8.875,-1.9375,-0.8125,0
24400,-0.5,6.3125,-1.125,0
24420,-7.6875,1.375,1.25,0
24440,-7.8125,-3.5625,2.625,0
24460,-4.1875,-4.875,3.25,0
24480,-4.375,-4.0625,2.4375,0
24500,-3.75,-0.8125,2.125,0
24520,-5.5625,0.625,0.125,0
24540,-3.125,3.6875,-1.625,0
24560,1.875,2.1875,-1.6875,0
24580,1.625,-2.375,1.1875,0
24600,-2.875,-1.4375,1.5625,0
24620,1,1.625,-2.4375,0
24640,-2.375,-2.375,1.375,0
24660,-0.8125,1.4375,-1.3125,0
24680,0.5625,-2.6875,0.4375,0
24700,1.25,1.375,-0.375,0
24720,-2.875,-1.1875,2.0625,0
24740,0.125,-1.0625,0.5625,0
24760,2.5,0.875,-0.625,0
24780,0.1875,0.5,0.5,0
24800,-0.375,0.3125,0.625,0
24820,-1.8125,-0.25,-0.0625,0
24840,-1.5,-0.1875,-0.3125,0
24860,-0.625,0.25,-0.5,0
24880,2,1.6875,1.0625,0
24900,2.125,-0.4375,-0.5,0
24920,-0.375,-0.5,0.875,0
24940,-1.6875,-0.625,1.125,0
24960,-2,-0.75,-0.375,0
24980,0.625,-0.0625,-0.25,0
25000,2,-0.75,0.875,0
25020,-1.5,-1.375,0.25,0
25040,-2.4375,1.5625,0.875,0
25060,-0.375,0.875,-0.5,0
25080,1.5,-0.3125,-0.625,0
25100,-0.3125,-0.5625,0.375,0
25120,-2.375,-0.25,1,0
25130,-0.1875,0.0625,-0.1875,0
25160,2.8125,-0.5625,0.5,0
25180,-1.9375,-0.1875,-0.625,0
25200,-5.75,-2.0625,1.75,0
25220,-2.375,-0.5,-0.125,0
25240,-0.4375,-0.625,-0.1875,0
25260,0.125,-0.375,0,0
25280,-0.1875,0.3125,0.25,0
25300,-0.9375,0.125,0.3125,0
25320,-5.375,8.1875,0.125,0
25340,-0.4375,1.375,-1.125,0
25360,0.75,-0.8125,-0.3125,0
25380,0.25,-1,0.4375,0
25400,-1.75,-0.5,-0.4375,0
25420,-1.5,-0.1875,-0.5,0
25440,1.0625,-0.125,-0.0625,0
25460,0.9375,-0.6875,-0.1875,0
25480,-2.6875,-0.4375,-0.4375,0
25500,-3,0.1875,0.5,0
25520,-6.8125,0.5,1.0625,0
25540,1.125,-0.125,0.9375,0
25560,0.75,-0.1875,0.0625,0
25580,-0.1875,0.25,0.1875,0
25600,-0.375,-0.125,-0.375,0
25620,-1.3125,-0.5,-0.0625,0
25640,-0.5625,0,0.375,0
25660,0.125,-0.75,-0.75,0
25680,0.375,-0.125,0.0625,0
25700,0,0.3125,0.375,0
25720,0.25,-0.0625,0.0625,0
25740,0.0625,-0.3125,0.375,0
25760,0.0625,0,0.1875,0
25780,-0.1875,-0.125,-0.1875,0
25800,-0.8125,-0.1875,0,0
25820,-0.8125,0.25,0.3125,0
25840,0.5625,0.0625,-0.5,0
25860,0.0625,-0.125,0.0625,0
25880,-0.5,-0.25,-0.125,0
25900,-1.5625,-0.4375,0,0
25920,-0.5,-0.125,0.0625,0
25940,0.5,0,-0.0625,0
25960,0.3125,-0.4375,0.125,0
25980,-0.75,-0.375,0.3125,0
26000,-0.875,-0.3125,0.125,0
26020,-0.375,-0.3125,0.25,0
26040,0.3125,0.125,0.125,0
26060,-0.0625,-0.0625,-0.375,0
26080,-0.375,0,0.25,0
26100,-0.375,-0.0625,-0.125,0
26120,-1.125,-0.3125,-0.3125,0
26140,-0.75,-0.125,0.0625,0
26160,-0.4375,-0.25,-0.1875,0
26180,-0.3125,-0.125,-0.125,0
26200,0,-0.3125,0.1875,0
26220,-0.25,-0.3125,-0.25,0
26240,-0.125,-0.625,0.0625,0
26260,-0.1875,-0.3125,-0.0625,0
26280,-0.8125,-0.0625,0.0625,0
26300,-0.1875,0.25,0.0625,0
26320,0.4375,0.3125,-0.1875,0
26340,0,0.4375,-0.1875,0
26360,-0.0625,0.4375,0.125,0
26380,-0.125,0.125,-0.1875,0
26400,0,0,-0.1875,0
26420,0.375,-0.0625,0.0625,0
26440,-0.1875,-0.125,-0.125,0
26460,-0.25,-0.0625,0,0
26480,-0.125,0.125,-0.1875,0
26500,0.0625,0,-0.4375,0
26520,-0.1875,0.0625,0.0625,0
26540,0.5,0.0625,0.125,0
26560,0.5625,-0.125,-0.125,0
26580,1,-0.0625,0.1875,0
26600,0.5625,-0.3125,0,0
26620,0,-0.5,0.125,0
26640,-0.4375,-0.5,0.125,0
26660,0,-0.3125,0.1875,0
26680,0.75,-0.4375,-0.1875,0
26700,0.1875,-0.8125,-0.125,0
26720,-0.5,-0.9375,0.25,0
26740,-0.25,-1.125,0.125,0
26760,0.125,-1.25,-0.0625,0
26780,0.4375,-0.9375,0.125,0
26800,0.6875,-0.875,-0.0625,0
26820,0.4375,-1,0.0625,0
26840,-0.0625,-0.875,0.25,0
26860,0.4375,-0.5,0.0625,0
26880,0.75,-0.625,-0.125,0
26900,0.875,-0.3125,0,0
26920,0.0625,-0.6875,-0.1875,0
26940,-0.3125,-0.4375,-0.1875,0
26960,0,-0.25,-0.3125,0
26980,0.5,-0.4375,-0.3125,0
27000,0.125,-0.3125,-0.5625,0
27020,-0.3125,-0.375,-0.1875,0
27040,0,-0.625,-0.25,0
27060,-0.125,-0.375,0,0
27080,0.5,-0.5625,-0.3125,0
27100,-0.125,-0.6875,-0.0625,0
27120,-0.0625,-0.25,0.0625,0
27140,0.1875,-0.4375,-0.1875,0
27160,0.3125,-0.1875,0.1875,0
27180,0.25,-0.0625,-0.1875,0
27200,-0.1875,-0.0625,-0.0625,0
27220,-0.125,0.5625,0.375,0
27240,0.5625,0.125,-0.4375,0
27260,0.0625,0.0625,0.0625,0
27280,-0.125,0.3125,-0.0625,0
27300,0,0.1875,-0.1875,0
27310,0.3125,0.375,0,0
27330,0.1875,0.3125,-0.25,0
27350,-0.375,0.125,-0.4375,0
27370,-0.1875,0.125,-0.25,0
27390,-0.6875,0,-0.375,0
27410,-0.125,0.4375,-0.0625,0
27430,0.5,0.1875,-0.375,0
27450,0.875,0.1875,-0.125,0
27470,0.3125,0.5,0,0
27490,1.5625,0.625,-0.375,0
27510,2.125,0.125,-0.375,0
27530,0.8125,-1.125,-0.625,0
27550,-0.3125,-1.4375,-0.375,0
27570,0.0625,-2.1875,0.1875,0
27590,-2.4375,-1.5625,2,0
27610,-2.625,1.6875,5,0
27630,-0.8125,4.8125,5.9375,0
27650,1.875,8.75,8.75,0
27670,2.75,10.625,8.9375,0
27690,1.9375,10.75,10.5,0
27710,1.1875,13.5625,11.125,0
27730,-0.5625,17.9375,9.625,0
27750,-0.9375,23.875,8.125,0
27770,1.4375,31.125,6.0625,0
27790,5.5,35.0625,3.4375,0
27810,5.9375,33.625,-2.125,0
27830,-2.125,33.9375,-2.25,0
27850,-10.5,34.0625,-3.25,0
27870,-10.5625,31.125,-3.3125,0
27890,-7.75,24.8125,-3.875,0
27910,-5,18.6875,-4.375,0
27930,-8.3125,16,-2.9375,0
27950,-13.625,17.5625,-1.1875,0
27970,-15.125,22.8125,3.25,0
27990,-5.375,29.125,2.5,0
28010,0.125,32.375,2.375,0
28030,1.0625,32.5625,-0.25,0
28050,-4.875,31.8125,-2.8125,0
28070,-11.1875,29.75,-2.75,0
28090,-10.8125,28.8125,-3.25,0
28110,-12.25,25.125,-6.8125,0
28130,-12.3125,23.4375,-6.9375,0
28150,-11.4375,24.1875,-7.9375,0
28170,-10.5,25.0625,-7.5625,0
28190,-8.1875,22,-8.125,0
28210,-2.5,21.0625,-7.5625,0
28230,-2.25,18.375,-7.5625,0
28250,-4.625,15.625,-7.1875,0
28270,-4.875,14.9375,-7.125,0
28290,-2.875,13.625,-8.0625,0
28310,-1.4375,11.25,-8,0
28330,-0.6875,7.9375,-8.375,0
28350,-0.875,5.1875,-6.9375,0
28370,-2.5625,2.875,-7.4375,0
28390,-3.0625,2.3125,-5.6875,0
28410,-2.75,1.375,-4.375,0
28430,-1.4375,0.125,-4.375,0
28450,-2.3125,0.375,-3,0
28470,1.25,0.8125,-3.375,0
28490,1.375,-0.3125,-3.5,0
28510,-0.8125,-1.25,-2.5625,0
28530,-2.25,-0.875,-1.625,0
28550,-1.0625,-1.1875,-2.375,0
28570,-2.5625,-2.375,-2.6875,0
28590,-2.1875,-1.75,-2.8125,0
28610,-1.625,-0.375,-3.75,0
28630,-2,1.3125,-4.75,0
28650,-3.1875,4.0625,-3.9375,0
28670,-2.25,7.125,-4.125,0
28690,1,7.625,-5.25,0
28710,2.1875,6.0625,-6.9375,0
28730,0.875,4.9375,-6.9375,0
28750,-2.8125,1.8125,-6.9375,0
28770,-5.25,-0.625,-6.6875,0
28790,-4.75,-1.625,-6.3125,0
28810,-2.8125,-2.5,-7,0
28830,-1.5,-4.5,-6.4375,0
28850,-0.1875,-5.5,-6.6875,0
28870,0.6875,-4.875,-6.125,0
28890,2.125,-3.1875,-6.5625,0
28910,3.9375,-1.375,-7.0625,0
28930,4.125,-1.4375,-7.6875,0
28950,5.0625,-2.75,-8.6875,0
28970,2.5,-4.5625,-9.375,0
28990,-0.9375,-5.0625,-8.375,0
29010,-2.8125,-4.0625,-6.9375,0
29030,1.0625,-2,-7,0
29050,6.5,-1.625,-6.75,0
29070,7.4375,-6.5625,-7.5,0
29090,2.0625,-10.5,-5.125,0
29110,-2.4375,-12.9375,-1.625,0
29130,-2.4375,-16,0.625,0
29150,-3,-17.875,1.9375,0
29170,1.0625,-13.8125,5.0625,0
29180,11.1875,-9.5,5.375,0
29200,14.25,-10.1875,4.5,0
29220,11.625,-11.875,3.625,0
29240,5.9375,-12.375,3.4375,0
29260,1.375,-11.9375,3.4375,0
29280,-0.375,-9.9375,3,0
29300,5.125,-7.75,-1,0
29320,7.8125,-7.875,-3.75,0
29340,9,-9.5625,-6,0
29360,5.625,-12.875,-7.1875,0
29380,0.8125,-12.1875,-5.875,0
29400,2.5625,-12.3125,-7.25,0
29420,6.3125,-11.5,-7.125,0
29440,7.625,-11.5,-7.0625,0
29460,5.8125,-11.4375,-6.5,0
29480,1.8125,-10.0625,-6,0
29500,-0.3125,-6,-5.375,0
29520,1.9375,-1.8125,-5.9375,0
29540,2.5625,-0.0625,-8.125,0
29560,2.1875,2,-9.5,0
29580,-1.0625,4.5,-6.625,0
29600,2.75,5.8125,-6.9375,0
29620,4.25,6.625,-9.1875,0
29640,1.3125,8.4375,-11.9375,0
29660,-3.4375,9.125,-12.8125,0
29680,-6.75,9.75,-16.3125,0
29700,-8.1875,10.625,-16,0
29720,-5.25,12.9375,-11.4375,0
29740,4.125,13.3125,-9.9375,0
29760,8.3125,11.75,-12.5625,0
29780,5.75,8.375,-14.5625,0
29800,0.25,6.375,-13.3125,0
29820,-2.4375,4.3125,-10.5,0
29840,-1.625,2.4375,-8.375,0
29860,0.1875,2.125,-6.875,0
29880,2.5,4.0625,-4.75,0
29900,5,5.875,-2.8125,0
29920,7.875,7.5,-2.875,0
29940,8.6875,9.125,-4.0625,0
29960,6.5625,10.9375,-5,0
29980,3.125,13.875,-6.4375,0
30000,3.5625,17.25,-8.5,0
30020,4.0625,19.5625,-11.6875,0
30040,3.0625,20.9375,-15.75,0
30060,-0.8125,20.875,-19.1875,0
30080,-6,21,-19.625,0
30100,-13.5625,17.5625,-18.3125,0
30120,-25.3125,15.25,-17.25,0
30140,-27,17.8125,-16,0
30160,-12.5625,20.0625,-15.75,0
30180,-2.5625,17.4375,-16.625,0
30200,0.8125,17.375,-15.125,0
30220,-5.1875,18.5625,-9.375,0
30240,-10.375,16.3125,-4.0625,0
30260,-8.25,13.375,-3.5,0
30280,-1.4375,9.5625,-1.4375,0
30300,2.625,6.75,2,0
30320,5.5625,3.6875,3.625,0
30340,4.9375,-1.0625,6.3125,0
30360,2.375,-5.75,8.5625,0
30380,-0.6875,-9.3125,9.5625,0
30400,-0.3125,-11.0625,9.75,0
30420,3.5,-11.1875,8.3125,0
30440,7.5625,-10.3125,7.5625,0
30460,7.3125,-9.5,7.25,0
30480,7.3125,-8,6.6875,0
30500,7.875,-7.5,6,0
30520,7.5,-7.625,5.375,0
30540,6.125,-7.5,3.4375,0
30560,7.5625,-7.875,0.875,0
30580,8.75,-9.375,0.0625,0
30600,8,-12.5625,-1.1875,0
30620,2.8125,-12.75,-1.8125,0
30640,-0.125,-9.9375,-1.4375,0
30660,1.875,-8.1875,-1.125,0
30680,8.1875,-7.4375,-2.375,0
30700,13.3125,-7,-3.125,0
30720,12,-6.5,-2.9375,0
30740,6.625,-4.375,-1.5625,0
30760,5.75,-4.125,-0.6875,0
30780,2.8125,-4.1875,0.75,0
30800,3.3125,-4,-0.1875,0
30820,6.25,-2.625,-1.375,0
30840,7.1875,-1.5,-0.625,0
30860,4.1875,-1.6875,1.5,0
30880,2.25,-1.25,0.5,0
30900,8.5625,0,-1.125,0
30920,16.875,-1.0625,-1.75,0
30940,17.375,-6.875,-4.375,0
30960,12.25,-11.4375,-3.625,0
30980,6.9375,-13.6875,-3,0
31000,4.0625,-18.125,-3.5625,0
31020,-2.8125,-20,-2.125,0
31040,-3.875,-17.5,1.375,0
31060,3.3125,-9.1875,3.25,0
31080,15.6875,-5.625,2,0
31100,16.5625,-3.375,1.5625,0
31120,10.125,1.0625,3.625,0
31140,10.1875,4.5,3.5625,0
31160,13.5,3.5,-0.375,0
31180,12.8125,-0.0625,-5.25,0
31200,7.625,-1.6875,-6.9375,0
31220,3.9375,-4.1875,-8.75,0
31240,3.375,-4.8125,-9.875,0
31260,7.875,-1.125,-8.4375,0
31280,13.4375,-1.75,-9.5625,0
31300,13.1875,-7.4375,-8.75,0
31320,-4.4375,-16,-1.6875,0
31340,-20.25,-19.0625,7.25,0
31360,-23.0625,-18.625,17.125,0
31380,-10.25,-13.4375,23.625,0
31400,20.5,0.5625,34.5,0
31420,40.6875,31.25,48.125,0
31440,70.5625,72.8125,40.875,0
31460,46.125,110.625,0.875,0
31480,-22.8125,137.438,-25.25,0
31500,-60,146.312,-20.4375,0
31520,-54.75,149.625,16,0
31540,-20.9375,154.625,59.625,0
31560,-4.5625,159.625,89,0
31580,1.5,162,111.125,0
31600,-5.8125,163.562,127.938,0
31620,-16.4375,158.812,148.438,0
31640,-23.0625,149.125,169.188,0
31660,-28.875,135.688,164.75,0
31680,-36.25,127.25,159.688,0
31700,-41,118.125,164.188,0
31720,-42.25,109.75,177.5,0
31740,-37.5,109,168.312,0
31760,-34.9375,112.125,147.375,0
31780,-29.5625,107.938,138.812,0
31800,-24.375,93.0625,144.375,0
31820,-27.4375,79.6875,155.438,0
31840,-26.625,75.25,164.562,0
31860,-16.1875,77.25,154.625,0
31880,-6.9375,79.9375,126.188,0
31900,-31.625,77.375,94.125,0
31920,-65.9375,77.8125,89.375,0
31940,-83.5625,74.375,89.3125,0
31960,-71.75,77.8125,74.875,0
31980,-52.625,83.3125,56.25,0
32000,8.6875,89.0625,62.25,0
32020,20.8125,17.125,128,0
32040,-99.125,32.125,70.9375,0
32060,-71.8125,40.125,80.25,0
32080,-49.3125,24.4375,61.8125,0
32100,-24.8125,20.375,51.0625,0
32120,-1.375,22.4375,40,0
32140,10.125,15.1875,20.875,0
32160,-2.6875,6,3.625,0
32180,-14.125,-3.0625,-4.4375,0
32200,-13.1875,-10.3125,-10.625,0
32220,-6.6875,-17.3125,-12.875,0
32240,3.625,-20.9375,-11.0625,0
32260,5.625,-18.1875,-11.3125,0
32280,4.375,-13.1875,-10.3125,0
32300,-0.5,-11.8125,-5.625,0
32320,4.25,-10.8125,-4.125,0
32340,11.6875,-8.625,-5.875,0
32360,12.5,-4.6875,-18.25,0
32380,14.625,-2.25,-32.875,0
32400,21.3125,-3.3125,-43.3125,0
32420,24.75,-5.6875,-47.8125,0
32440,28.75,-7.3125,-49,0
32460,34.875,-9.5625,-51,0
32480,43.375,-10.625,-56.75,0
32500,47.8125,-11.6875,-61.375,0
32520,51.625,-11.875,-66.5,0
32540,52.25,-18.125,-68.9375,0
32560,48.8125,-31.9375,-77.4375,0
32580,56.75,-44.6875,-84.3125,0
32590,63.3125,-54.75,-98.9375,0
32610,53.875,-63.875,-108.25,0
32630,33.9375,-71.75,-112.062,0
32650,20.8125,-71.1875,-109.938,0
32670,19.3125,-66,-112.688,0
32690,41.0625,-57.1875,-115.062,0
32710,68.75,-39,-113.312,0
32730,91.75,-24.9375,-108.125,0
32750,105.812,-13.5,-101.938,0
32770,116.438,3.5,-105.875,0
32790,106.312,14.25,-106.312,0
32810,56.9375,11.5,-101.938,0
32830,2.4375,10.125,-102.562,0
32850,-28.1875,14.5,-111.75,0
32870,-23.5625,13.9375,-113.5,0
32890,8.6875,11.25,-103.75,0
32910,34.5625,14.125,-102.188,0
32930,45,16,-99.1875,0
32950,41.25,10.875,-92.3125,0
32970,32.375,1.125,-85.875,0
32990,26.0625,-10,-76.1875,0
33010,30.3125,-20.6875,-69.1875,0
33030,45.6875,-33.9375,-66.3125,0
33050,74.9375,-59.1875,-56.8125,0
33070,82.5,-83.375,-33.1875,0
33090,58.5625,-103.5,2.4375,0
33110,28.6875,-123.125,34.6875,0
33130,35.625,-127.938,61.6875,0
33150,58.5,-119.375,69.125,0
33170,42.625,-111.125,47.9375,0
33190,27.125,-107.688,20.8125,0
33210,15.875,-102.438,22.4375,0
33230,3.625,-88.875,23.125,0
33250,7.9375,-71.4375,25.75,0
33270,25.4375,-59.5,23.0625,0
33290,25.3125,-62,23.125,0
33310,1.75,-63.9375,27.6875,0
33330,-17.5625,-58.0625,33.3125,0
33350,-16.9375,-56.3125,34.125,0
33370,-9.8125,-55.8125,28.625,0
33390,-0.1875,-49.75,24.8125,0
33410,5.1875,-41.25,26.4375,0
33430,-0.75,-41.75,28.125,0
33450,-9.875,-40.75,28.5625,0
33470,-8.25,-40.9375,31.8125,0
33490,6.6875,-38.8125,35.6875,0
33510,21.625,-33.5,29.75,0
33530,24.375,-26,28.1875,0
33550,14.3125,-19.875,26.5625,0
33570,12.25,-18.9375,26.1875,0
33590,15.25,-18.125,29.6875,0
33610,15.9375,-17.0625,21.9375,0
33630,15.8125,-9.25,8.125,0
33650,-5.4375,-19.625,-10.4375,0
33670,-13,-28.875,-28.3125,0
33690,10.25,-31.75,-38.8125,0
33710,26.1875,-33.625,-43.4375,0
33730,34.375,-43.1875,-46.3125,0
33750,43.0625,-53.3125,-31.125,0
33770,35.3125,-62.75,-14.75,0
33790,-15.625,-78.6875,7.4375,0
33810,-14.4375,-89.5,14.3125,0
33830,19.8125,-90.9375,15.3125,0
33850,43.8125,-90.125,11.25,0
33870,47.75,-88.875,10.0625,0
33890,22.9375,-83,14.0625,0
33910,3.5,-20.0625,5.75,0
33930,-54.375,3.875,-16.75,0
33950,-66.9375,-1.125,-8.25,0
33970,-50.3125,-14.8125,8.3125,0
33990,-33.5,-31.625,14.75,0
34010,36.4375,-20.25,12.8125,0
34030,79.25,0,-24.5625,0
34050,37.75,-18.5625,-38.5,0
34070,-12.125,-20.5,-14.125,0
34090,-37.0625,-12.9375,1.375,0
34110,-24.4375,-9.75,-3.5625,0
34130,-4.875,-10.9375,-14.9375,0
34150,4.625,-8.9375,-14,0
34170,5.25,-6.875,-10.5625,0
34190,5.8125,-4,-7.6875,0
34210,2.0625,-3.8125,-6.125,0
34230,-4.625,-4,-5.25,0
34250,-7,-2.875,-4.625,0
34270,-5.9375,-0.375,-3.3125,0
34290,-1.1875,0.6875,-1.6875,0
34310,10.375,-2,-2.0625,0
34330,8.125,-3.625,-1.8125,0
34350,1.8125,-2.9375,-0.5,0
34370,-2.6875,-1.4375,1.0625,0
34390,-3.125,-2.6875,0.625,0
34400,-3.6875,-2.0625,-1.75,0
34430,-6.25,-1.5625,-3,0
34450,-6.625,-0.625,-3.25,0
34470,-5.125,-0.625,-1.875,0
34490,1.9375,-0.6875,-2.75,0
34510,3.6875,-1.9375,-4.875,0
34530,0.25,-3.375,-4.625,0
34550,-7.1875,-3.3125,-3.0625,0
34570,-3.125,-0.75,1.8125,0
34590,6.1875,-1.375,-1.0625,0
34610,1.3125,0.9375,-1.1875,0
34630,5,-7.25,-3.1875,0
34650,-0.3125,-1.8125,-1.375,0
34670,-3.0625,-0.8125,-0.0625,0
34690,-1.3125,-1.125,0.1875,0
34710,3.375,-1.5,-0.75,0
34730,3.0625,-0.8125,-0.3125,0
34750,-4.8125,-2.875,0.875,0
34770,-0.1875,-0.125,-0.9375,0
34790,2.4375,-6.625,-0.75,0
34810,-3.375,-4.375,-3.625,0
34830,-3.8125,-0.75,-2.8125,0
34850,-3.8125,-1.375,-2.0625,0
34870,-1.6875,-2.25,-0.9375,0
34890,-0.6875,-3.375,-1.375,0
34910,-0.75,-2.6875,-0.1875,0
34930,-1.3125,-1.9375,-0.6875,0
34950,-1.0625,-0.0625,-0.125,0
34970,0.5625,0.6875,-0.125,0
34990,2.3125,0.75,-1.3125,0
35010,-0.5,0.125,-1.4375,0
35030,-3.875,-0.375,-1.75,0
35050,-5.5625,-0.5,-1.1875,0
35070,-3.75,-0.0625,-0.3125,0
35090,0,-0.4375,-0.6875,0
35110,2.4375,-1.375,-1.875,0
35130,-0.25,-1.3125,-1.4375,0
35150,-3.75,-1.5,-0.5625,0
35170,-3.1875,-1.3125,-0.5625,0
35190,-0.625,-1.1875,-0.6875,0
35210,2.25,-0.5,-0.125,0
35220,1.9375,-0.4375,-0.1875,0
35240,-0.25,-0.25,0.25,0
35260,-2.125,0.125,0.25,0
35280,-3,0.0625,0.125,0
35300,-1.625,0.4375,-0.375,0
35320,-0.5,-0.625,-0.3125,0
35340,-0.0625,-1.4375,-0.4375,0
35360,-1.9375,-0.875,-0.0625,0
35380,-3,-0.625,-0.1875,0
35400,-1.5625,-1.4375,-0.625,0
35420,-0.0625,-2.5625,-0.375,0
35440,0.25,-4.125,-1.5,0
35460,-3.125,-4.375,-1.9375,0
35480,-4.625,-2.8125,-1.1875,0
35500,-1.6875,-2.6875,-0.5625,0
35520,3.125,-4.0625,-1.125,0
35540,2.875,-4.6875,-1.25,0
35560,0,-4.3125,-0.5625,0
35580,-1.9375,-3.75,-0.25,0
35600,-3.25,-3.5,-0.75,0
35620,-1.5625,-2.875,-1,0
35640,-1.1875,-1.8125,-1.25,0
35660,-1.8125,-0.625,-1.875,0
35680,-4.0625,0.3125,-3.0625,0
35700,-5.3125,1.625,-2.5625,0
35720,-5.25,2.75,-2.3125,0
35740,-4.25,2.375,-2.75,0
35760,-3.875,1.875,-2.0625,0
35780,-4.125,1.3125,-1.1875,0
35800,-3.8125,0.75,-0.4375,0
35820,-4.25,0.0625,-0.75,0
35840,-4.5,0.3125,-0.5625,0
35860,-4.4375,0.375,0,0
35880,-3.3125,0.125,0.5,0
35900,-2.6875,1.375,0.125,0
35920,-3.5,2.4375,-0.5,0
35940,-4.375,2.8125,-0.5625,0
35960,-4.5625,3.0625,-0.5,0
35980,-5,2.9375,-0.625,0
36000,-5.1875,3.1875,-1.125,0
36020,-5.4375,2.5625,-1.375,0
36040,-6,1.25,-1.9375,0
36060,-6.0625,0.125,-1,0
36080,-6.875,-1.4375,-1.3125,0
36100,-7.9375,-2.5,-1.5625,0
36120,-11.25,-5.3125,-3.0625,0
36140,-14.25,-6.8125,-3.5,0
36160,-16.0625,-10.125,-2.4375,0
36180,-14.9375,-13.1875,0.125,0
36200,-10.4375,-15.5,5.75,0
36220,-12,-18.875,7.3125,0
36240,-14.5,-14.4375,12.5,0
36260,-20.8125,-15.875,14,0
36280,-29.25,-14.1875,16.3125,0
36300,-36.75,-19.6875,20.0625,0
36320,-24.875,-17.5,17.375,0
36340,-11.375,-17.3125,5.4375,0
36360,-23.6875,-18.375,-12.9375,0
36380,-65.875,-20.125,-14.5,0
36400,-89.625,2.3125,-8,0
36420,-79.1875,36.5625,-3.3125,0
36440,-49.1875,61.25,-12.1875,0
36460,-31,78.0625,-11.0625,0
36480,-41.625,91,1.6875,0
36500,-72.25,102.438,6.9375,0
36520,-113.25,101.812,2.4375,0
36540,-147.812,108.812,2.125,0
36560,-166.875,99.375,12.0625,0
36580,-161.375,105.375,21.875,0
36600,-136.625,104.25,26.8125,0
36620,-107.688,97.5625,18.125,0
36640,-109.75,85.625,4.4375,0
36660,-126,69.9375,0.75,0
36680,-131.875,56.625,4.3125,0
36700,-130.625,41.5,0.625,0
36720,-89.5625,29.4375,-13.75,0
36740,-23.8125,18.375,-46.6875,0
36760,-47.125,-8.875,-21.375,0
36780,-44.4375,-7.875,-5.3125,0
36800,-71.5,13.75,-276.938,0
36820,-79.1875,-96.5,-97.875,0
36840,-106.312,-101.438,30,0
36860,80.5625,149.188,47.4375,0
36880,80.9375,132.25,156.875,0
36900,83.125,108.312,80,0
36920,111.938,218.562,168.438,0
36940,121.375,366,136.562,0
36960,-109.875,45.25,-342.312,0
36980,-139.688,-1475.25,263.188,0
37000,346,369.062,564.875,0
37020,363.438,-87.25,182.625,0
37040,207.125,9.6875,156.812,0
37060,125.312,106.75,129.75,0
37080,113.125,146,26.125,0
37100,87.5625,98.5625,-22.125,0
37120,62.1875,92.4375,-34.125,0
37140,44.9375,76.75,-26,0
37160,67.5,28.3125,-10.875,0
37180,61.8125,40.875,16.875,0
37200,51.8125,35.375,14,0
37220,72.4375,-2.375,37.1875,0
37240,100.625,-12.625,49.875,0
37260,96.375,7.1875,33.5625,0
37280,96.5,-32.875,-93.5625,0
37300,34.4375,-161.625,-379.25,0
37320,-158.75,-455.75,-463.938,0
37340,-62.4375,-650.812,-197.938,0
37360,-154.875,-492.062,159.438,0
37380,50.1875,-80.25,252,0
37400,263.375,-139.812,203.188,0
37420,129.438,-64.4375,-211.312,0
37440,16.1875,-47,-208.125,0
37460,128.438,-81.6875,10.1875,0
37470,154.688,-89,-41.625,0
37480,193.062,-115.312,15.1875,0
37500,-26.9375,-26.3125,36.625,0
37520,-32,41.9375,-1.4375,0
37560,-138.438,18.875,-72.0625,0
37580,-107.125,42.4375,45.125,0
37600,-86.5625,42.6875,10.5,0
37620,-25.4375,-2.9375,-49.75,0
37640,125.812,-3.625,-91.25,0
37660,30.1875,4.0625,-124.125,0
37680,-34.4375,-60.375,-234,0
37700,-17.9375,-43.8125,-262.812,0
37720,-12.1875,-7.3125,-211.375,0
37740,49.3125,-61.3125,-313.5,0
37760,24.625,-50,-431.625,0
37780,19.9375,-4.75,-418.188,0
37800,49.5625,10.125,-366.062,0
37820,-10.25,-87.5625,-404.188,0
37840,-42.75,-96.3125,-357.688,0
37860,-21.375,-60.875,-248,0
37870,21.4375,-26.125,-182.125,0
37890,37.125,-111.125,-190.25,0
37910,4.375,-95.1875,-264.688,0
37930,-4.25,-149.625,-261.25,0
37950,-60.4375,-298.562,-180.5,0
37970,-191.875,-182.438,65.5625,0
37990,-38.1875,-75.375,-70.25,0
38010,15.5,40.1875,-383.312,0
38030,-83.5625,-28.75,-361,0
38050,-147.938,31.5625,-248.438,0
38070,42.4375,-88.875,-70.5,0
38090,151.438,-140.875,-41.6875,0
38110,17.1875,-60.1875,183.125,0
38130,-108.438,6.0625,213.375,0
38150,-321.688,-106.75,1.5,0
38170,-294.875,34.3125,-148.125,0
38190,190.938,-260.812,-4.75,0
38210,264.125,-216.188,-49.25,0
38230,149.125,-131,-19.0625,0
38250,181.875,-123.688,-45.5,0
38270,194.125,-192.188,-30.3125,0
38290,180.875,-211.688,-112.812,0
38310,132.375,-164.188,-200.812,0
38330,126.875,-119.188,-116.688,0
38350,185.125,-86.875,11.625,0
38370,157.062,-117.75,-193.625,0
38390,136.812,-112.75,-270.312,0
38410,-34.25,-112.562,200.188,0
38430,71.0625,-127.125,-45.625,0
38450,4.125,-53.5,2.75,0
38470,-98.1875,-106.188,0.5,0
38490,-102.812,-178.5,-28.9375,0
38510,-99.3125,-102,-55.0625,0
38530,-81.0625,-225.25,-45.0625,0
38550,-87.9375,-209.688,74.9375,0
38570,-26.75,-106.5,-5.375,0
38590,-39.5,-116.312,9.375,0
38610,-45.5,-80.6875,32.9375,0
38630,-86.9375,-98.6875,2.4375,0
38650,-91.8125,-135.438,-54.0625,0
38670,-103.062,11.0625,12.375,0
38690,139.688,58.625,60.375,0
38710,-22.5625,166.062,-111.375,0
38730,-141.375,423.938,214.375,0
38750,-221.688,211,-137.938,0
38770,-169.688,-6.6875,-143.75,0
38790,153.562,-101.375,67.8125,0
38810,-286.688,-176.688,-25.1875,0
38830,57.3125,414.312,-299.125,0
38850,-94.1875,278.812,100.562,0
38870,-67.4375,76.75,-24,0
38890,-55.5,90.75,-47.75,0
38910,-36.3125,76.3125,-28.4375,0
38930,-60.5625,62.1875,-34.5625,0
38950,-75.0625,57.75,-37.8125,0
38970,-44.1875,66.6875,-0.5,0
38990,-12.8125,65.5625,40.0625,0
39010,-18.5625,52.0625,50.0625,0
39030,-10.625,38.0625,49.625,0
39050,11.1875,45.625,41.6875,0
39070,-0.25,50.625,37.125,0
39090,-7.25,61.375,2.0625,0
39110,-41.25,78,-19.5,0
39130,-20.6875,92.9375,-25.6875,0
39150,-0.125,86.4375,-36.875,0
39170,12.1875,78.0625,-2.0625,0
39190,-3.4375,47.25,8.3125,0
39210,1.875,38.25,-2.8125,0
39230,-2.0625,38.25,2.25,0
39250,4.625,28.125,15,0
39270,9.6875,22.0625,17.3125,0
39290,-0.25,27.5,13.1875,0
39310,-17.75,28.3125,26.3125,0
39330,-10.0625,19.5,35.5,0
39350,22.0625,10,50.0625,0
39370,26.125,-1.3125,52,0
39390,24.5625,-6.25,56,0
39410,15,-4.125,76.8125,0
39430,2.0625,-4.125,97.875,0
39450,-81.1875,-1.125,79.25,0
39470,-155.812,26.875,57.125,0
39490,-310.562,24.875,31.75,0
39510,-351.812,0.75,2.625,0
39530,-345,-8.375,-8.1875,0
39550,-292.188,2.5625,17.1875,0
39570,-171.875,32.5625,4.4375,0
39590,-26.25,50.375,-16.0625,0
39610,62.25,57.1875,-34.625,0
39630,107.5,63.75,-61.5,0
39650,155.625,60.25,-102.312,0
39670,146.938,53.3125,-100.625,0
39690,61.6875,55.3125,-75.4375,0
39710,-27.9375,54.625,-65.75,0
39730,-70.8125,51,-66.8125,0
39750,-56.6875,49.0625,-57.375,0
39770,-1.75,34,-38.8125,0
39790,40.5,12.0625,-20.6875,0
39810,33.875,0.5,-15.5,0
39830,9.4375,-8.5,-17.9375,0
39850,-2.875,-14.9375,-16.875,0
39870,-7.0625,-16.6875,-10.375,0
39890,2.0625,-15.6875,-15.375,0
39910,27.1875,-20.25,-32.1875,0
39930,50.25,-20.625,-30.375,0
39950,67.5,-22.8125,-17.125,0
39970,61.6875,-22.4375,-13.4375,0
39990,45.4375,-19,-17.8125,0
40010,39.6875,-17.4375,-16.0625,0
40030,38.8125,-10.5,-10.125,0
40050,35.1875,-1.0625,-5.9375,0
40070,6.6875,-2.0625,-7.8125,0
40090,-33.5625,18.9375,-5.25,0
40110,42.8125,45.75,12.25,0
40130,82.125,6.1875,12.5,0
40150,75.3125,3.625,12.75,0
40170,40.875,3.4375,-4.1875,0
40190,31.1875,6.5625,-10.1875,0
40210,18.125,11.5625,-0.4375,0
40230,1,22.9375,-1.9375,0
40250,-4.375,23.875,-11.625,0
40270,-19.5625,27,-18.1875,0
40290,-33.75,30,-28,0
40310,-43.1875,38.3125,-31.875,0
40330,-51.625,47.4375,-35.1875,0
40350,-58.875,53.25,-38.4375,0
40370,-37.4375,57.375,-40.5,0
40390,42.8125,74.1875,-40.625,0
40410,37.125,57,-23.5625,0
40430,22.8125,41.1875,-19.125,0
40450,-6.3125,38.8125,-21.625,0
40470,-13.8125,41.4375,-26.4375,0
40480,-8.875,44.5625,-21.5,0
40500,-2.6875,52.9375,-21.0625,0
40520,-0.5,63,-21.3125,0
40540,-6.9375,59.3125,-30.6875,0
40560,-6.1875,58.5625,-24.1875,0
40580,8.8125,50.25,-33,0
40600,21.5,44.9375,-29.3125,0
40620,24.8125,44.125,-28.1875,0
40640,27.6875,34,-34.5625,0
40660,30.8125,24.5,-40.875,0
40680,1.875,27.6875,-43.375,0
40700,-47.0625,22.5625,-37.0625,0
40720,-59.75,34,-28.9375,0
40740,-65.75,37.4375,-32.6875,0
40760,-85.75,13.0625,-37.5,0
40780,-67.125,7.625,-38.6875,0
40800,18.375,1.5,3.25,0
40820,77.25,-12.5625,15,0
40840,54.0625,-47.75,25.75,0
40860,-9.125,-79.5,53.6875,0
40880,-42.1875,-97.5,78.0625,0
40900,-46.375,-107,79.25,0
40920,-44,-111.312,76.8125,0
40940,-38.5625,-117.875,84.5625,0
40960,-37.4375,-120.875,100.188,0
40980,-45.6875,-117.25,106.75,0
41000,-54.25,-114.562,107.125,0
41020,-66.3125,-103.688,116.562,0
41040,-75.375,-94.8125,131.688,0
41060,-81.1875,-75.6875,147.125,0
41080,-54.5,-50,155.438,0
41100,-17.3125,-31.3125,142.625,0
41120,-9.3125,-12.6875,133.625,0
41140,-6.0625,8.6875,125.938,0
41160,5,23.5625,97.1875,0
41180,43.4375,30.8125,46.25,0
41200,69.875,32.9375,9.625,0
41220,66.9375,38.6875,-5.25,0
41240,51.875,5.3125,-19.75,0
41260,-7.9375,-25.9375,-83.9375,0
41280,-30.875,-38.9375,-99.25,0
41300,-10.75,-40.4375,-84.8125,0
41320,53.4375,-41.375,-73.875,0
41340,98,-28.5,-77.625,0
41360,86.875,-18.875,-55.6875,0
41380,62.6875,-6.8125,-32.4375,0
41400,14.6875,-1.6875,-17.625,0
41420,-39.625,-6.4375,-12.25,0
41440,-60.0625,-15.4375,-6,0
41460,-49.375,-17.5625,0.5,0
41480,-25.625,-14.25,9.5625,0
41500,1.5625,-8.375,11.625,0
41520,14.625,-4.25,9.625,0
41540,13.1875,-2.875,5.4375,0
41560,8.375,-3.5,2.0625,0
41580,3.6875,-3.8125,1.75,0
41600,0.4375,-2.25,1.9375,0
41620,0.6875,-1.75,3.3125,0
41640,3.125,-0.8125,4.125,0
41660,6.5,-0.625,6.75,0
41680,6.1875,0.3125,10.1875,0
41700,3.375,0.125,10.6875,0
41720,2.125,-0.9375,10.0625,0
41740,2.1875,-2.6875,12.3125,0
41760,-0.125,-3.0625,13.375,0
41780,-0.625,-2.25,10.0625,0
41800,3.5,-1.0625,8.1875,0
41820,7.9375,-0.5625,8.625,0
41840,8.4375,-1.9375,11.25,0
41860,4.6875,-2.6875,12.4375,0
41880,0.3125,-2.9375,13.125,0
41900,-1.75,-2.5625,12.0625,0
41920,0.5,-1.8125,10.625,0
41940,4.5,-1.0625,9.375,0
41960,5.4375,-0.9375,9.75,0
41980,2.125,-0.8125,7.1875,0
42000,0.8125,-1.125,4.625,0
42020,3.5625,-1.5,3.1875,0
42040,7.625,-2.5,3.75,0
42060,9.25,-3.0625,3.4375,0
42080,7.6875,-2.875,1.1875,0
42100,6.875,-1.5625,-2.6875,0
42120,9.875,-0.875,-0.875,0
42140,8.6875,-1,4,0
42160,3.5625,-2.625,6.0625,0
42180,-0.9375,-3.5625,6.0625,0
42200,-1.125,-3.625,6.125,0
42220,1.25,-3.6875,6.5,0
42240,1.75,-3.25,5.625,0
42260,1.9375,-2.5625,2.125,0
42280,3.375,-1.9375,-0.875,0
42300,3.5,-2.0625,-2.375,0
42320,2.5,-2.125,-3.5625,0
42340,2.9375,-2.25,-4.5,0
42360,4.4375,-1.25,-5.75,0
42380,6.0625,-1.3125,-3.8125,0
42400,6.25,-1.625,-1.125,0
42420,2.375,-1.1875,-2.0625,0
42440,1.25,0,-2.8125,0
42460,2.9375,0.875,-1.3125,0
42480,2.9375,0.3125,0.625,0
42500,1.625,-0.6875,0.3125,0
42520,1.1875,-1.5,0.5,0
42540,0.25,-2.375,1.3125,0
42560,0.125,-2.625,1,0
42580,0.9375,-2.625,0.1875,0
42600,1.375,-2.9375,0.4375,0
42620,0.4375,-2.9375,0.625,0
42640,-2.0625,-2.125,0.4375,0
42660,-1.9375,-0.5,-0.4375,0
42680,1.6875,0.375,-0.6875,0
42700,5,0.875,0.875,0
42720,-0.375,0.5625,3.375,0
42740,0.9375,2.625,6.0625,0
42760,10.9375,1,3.4375,0
42780,9.6875,1.5,-0.125,0
42800,7.5,2.4375,-2.375,0
42820,5.1875,2.25,-1.3125,0
42840,3.25,2.3125,-0.6875,0
42860,2.125,0.6875,-0.25,0
42880,1.4375,-0.6875,0.3125,0
42900,-0.125,-1.5625,-0.3125,0
42920,-0.1875,-2.4375,-0.9375,0
42940,-0.625,-3.5,-0.4375,0
42960,-2,-3.25,-1,0
42980,-2.75,-3.5,-1,0
43000,-3.125,-2.8125,-1.3125,0
43020,-1.1875,-1.5625,-1.3125,0
43040,1.375,-0.125,-0.8125,0
43060,0.5625,1.75,-1.625,0
43080,0.6875,2.8125,-2.3125,0
43100,1.5,2.9375,-0.8125,0
43120,0.625,2.125,0.4375,0
43130,-0.3125,0.875,0.75,0
43150,-0.75,-0.1875,1.9375,0
43170,-1.4375,-1.5,2.875,0
43190,-1.6875,-1.875,2.125,0
43210,-1.75,-1.875,0.5625,0
43230,-2.125,-1.9375,-0.4375,0
43250,-2.0625,-1.4375,-1.75,0
43270,-1.375,-1.0625,-2.25,0
43290,-1,0.1875,-2.8125,0
43310,1,0.9375,-1.75,0
43330,1.8125,1.5625,1.0625,0
43350,-0.1875,1.75,2.0625,0
43370,-0.25,1.5625,1.5,0
43390,0.125,1.375,1.3125,0
43410,0.0625,0.875,0.875,0
43430,0.0625,0.0625,0.8125,0
43450,0,-0.75,0.875,0
43470,-0.5,-1.375,1.4375,0
43490,-0.375,-2.0625,1.5625,0
43510,-0.4375,-1.5625,0.875,0
43530,-0.5,-1.375,0.3125,0
43550,0.0625,-1.25,-0.9375,0
43570,0.125,-1.25,-0.9375,0
43590,-0.5,-0.75,-1.625,0
43610,0.125,0,-2.25,0
43630,2.0625,0.625,-0.5,0
43650,1.25,1.6875,0.125,0
43670,-0.6875,2.5625,-1.875,0
43690,0.9375,2.9375,-1.9375,0
43710,2.5625,2.1875,-0.125,0
43730,0.4375,0.6875,0.5,0
43750,-0.5,-0.75,0.875,0
43770,0.375,-2.375,1.75,0
43790,0.25,-3.0625,1.5,0
43810,-0.375,-3.1875,-0.1875,0
43830,-1.1875,-3.25,-1.4375,0
43850,-1.375,-3,-2,0
43870,-1.3125,-2,-2.5,0
43890,0.375,-0.4375,-2.875,0
43910,2.4375,0.9375,-1.6875,0
43930,3.125,1.6875,0.125,0
43950,2,1.6875,1.875,0
43970,-0.25,1.625,1.8125,0
43990,-1.25,1.8125,0.9375,0
44010,0,1.4375,1,0
44030,0.25,1,1,0
44050,0.75,0.0625,1.0625,0
44070,0.375,-1.0625,1.5625,0
44090,-1,-1.9375,1.375,0
44110,-1.75,-2.125,0,0
44130,-0.9375,-1.9375,-1,0
44150,0.125,-1.375,-1.75,0
44170,0.4375,-0.6875,-2.0625,0
44190,0.3125,-0.0625,-2.375,0
44210,0.1875,0.375,-2.125,0
44230,0.375,0.8125,-0.9375,0
44250,0.4375,0.8125,0.4375,0
44270,-0.1875,0.5,1.1875,0
44290,-0.9375,0.125,1.3125,0
44310,-1.875,0.3125,0.875,0
44330,-1.8125,0.75,0.4375,0
44350,-0.8125,1.1875,0.3125,0
44370,-0.625,1.3125,0,0
44390,-1,1.0625,-0.125,0
44410,-1.4375,1.0625,-0.1875,0
44430,-1.6875,1,-0.125,0
44450,-0.9375,1.125,0.4375,0
44470,-0.1875,1.0625,1.25,0
44490,-0.6875,1,0.875,0
44510,-1.1875,0.375,0.5,0
44530,-1.4375,0.3125,0.6875,0
44550,-1.375,0,0.8125,0
44570,-0.5,-0.125,0.5625,0
44590,0.25,-0.375,0.6875,0
44610,0.4375,-0.75,0.5,0
44630,-0.1875,-0.625,-0.8125,0
44650,0.1875,-0.8125,-1.4375,0
44670,1.125,-1,-1,0
44690,1.1875,-1.4375,-0.75,0
44710,0.6875,-1.375,-0.625,0
44730,1.1875,-1.3125,-0.375,0
44750,1.6875,-1.25,-0.125,0
44770,1.25,-1.3125,-0.3125,0
44790,-0.125,-0.9375,-0.375,0
44810,-0.125,-0.5625,-0.3125,0
44830,0.25,-0.4375,0.3125,0
44850,0.375,0.0625,0.125,0
44870,0.25,0.1875,0,0
44890,0,0.125,-0.5625,0
44910,0.5625,-0.1875,-0.25,0
44930,0.25,-0.25,-0.25,0
44950,-0.1875,-0.3125,-0.1875,0
44970,0.25,-0.3125,-0.125,0
44990,0.9375,-0.3125,0,0
45010,1.125,-0.3125,0,0
45030,0.8125,-0.375,-0.125,0
45050,0.0625,-1.25,-0.125,0
45070,-0.5,-1.75,-0.1875,0
45090,-0.9375,-2.1875,-0.75,0
45110,-0.5,-2.125,-1.0625,0
45130,0.4375,-1.75,-0.625,0
45150,0.9375,-1.25,0,0
45170,0.5625,-0.4375,-0.4375,0
45190,1.0625,0.125,-0.4375,0
45210,1.5,0.375,-0.1875,0
45230,1,0.375,-0.125,0
45250,0.1875,0.25,0,0
45270,0.0625,0,0.3125,0
45290,0.625,0,0.8125,0
45310,0.8125,-0.3125,0.75,0
45330,0,-0.5625,0.4375,0
45350,-0.9375,-1.0625,0.5,0
45370,-0.5625,-1.0625,0.1875,0
45390,0.5625,-0.9375,0,0
45410,1.1875,-0.6875,0.0625,0
45430,0.8125,-0.3125,0,0
45450,-0.125,-0.3125,-0.25,0
45470,-0.25,-0.375,-0.4375,0
45490,0,-0.125,-0.375,0
45510,0.5,0.125,-0.3125,0
45530,0.1875,0.0625,-0.3125,0
45550,-0.25,-0.0625,-0.5,0
45570,-0.25,-0.1875,0.125,0
45590,-0.1875,-0.375,-0.0625,0
45610,-0.125,0,-0.0625,0
45630,-0.25,0,0.0625,0
45650,-0.5625,0.3125,-0.1875,0
45670,-0.5,0.25,-0.3125,0
45690,-0.1875,0.1875,-0.125,0
45710,-0.375,0.0625,0,0
45730,-0.1875,0.1875,-0.1875,0
45750,-0.3125,0.25,0.1875,0
45760,-0.125,0.3125,0.1875,0
45780,0,0.125,0,0
45800,0,-0.1875,0.125,0
45820,-0.5625,-0.3125,0.0625,0
45840,-0.75,-0.3125,-0.375,0
45860,-0.375,0.125,-0.5625,0
45880,0.5,0.125,-0.25,0
45900,0.375,0.125,0.0625,0
45920,-0.625,-0.0625,-0.1875,0
45940,-0.6875,0.25,-0.1875,0
45960,0.0625,0.25,0.1875,0
45980,0.4375,0.25,0.3125,0
46000,-0.0625,-0.0625,0.375,0
46020,-0.375,-0.4375,0.0625,0
46040,-0.375,-0.3125,-0.125,0
46060,-0.0625,0,0.25,0
46080,0.5,0.3125,0.5625,0
46100,0.125,0.4375,0.3125,0
46120,0.125,0.125,0.375,0
46140,-0.1875,-0.0625,0.5,0
46160,-0.25,-0.0625,0,0
46180,0.0625,0,0.0625,0
46200,0.125,-0.125,0,0
46220,0.25,-0.375,-0.1875,0
46240,-0.1875,-0.6875,-0.5625,0
46260,0.0625,-0.5625,-0.3125,0
46280,0.3125,-0.25,-0.4375,0
46300,0.625,0,-0.4375,0
46320,0.3125,0.125,-0.4375,0
46340,-0.0625,-0.1875,-0.5,0
46360,0.0625,-0.5,-0.0625,0
46380,0.25,-0.5625,0.4375,0
46400,0.0625,-0.125,-0.1875,0
46420,0.5,-0.125,-0.125,0
46440,0.375,-0.125,0.1875,0
46460,0.0625,-0.5625,0.1875,0
46480,0.1875,-0.625,0.3125,0
46500,0.3125,-0.4375,0.375,0
46520,0.875,-0.25,0.375,0
46540,1,-0.4375,0.4375,0
46560,0.8125,-0.75,0.5,0
46580,0.8125,-1,0.8125,0
46600,1.4375,-1.4375,1.125,0
46620,2.9375,-1.6875,1.625,0
46640,3.5,-2.5,2.25,0
46660,3.3125,-3.3125,2.4375,0
46680,3.75,-4.6875,2.5,0
46700,5.375,-6.125,3.0625,0
46720,6.625,-7.625,3.5625,0
46740,7.1875,-8.8125,2.875,0
46760,8.3125,-9.9375,1.75,0
46780,8.8125,-10.8125,0.3125,0
46800,9.6875,-11.9375,-0.5625,0
46820,11.5625,-12.4375,-1.625,0
46840,12.8125,-13.5625,-2,0
46860,13.875,-13.1875,-4,0
46880,15.5625,-14,-4.4375,0
46900,15.6875,-13.6875,-5,0
46920,14.125,-13.9375,-4.5,0
46940,16.625,-11.8125,-3.875,0
46960,23.4375,-11.75,-4.8125,0
46980,25.9375,-11.6875,-8.1875,0
47000,26.5625,-11,-10.6875,0
47020,24.1875,-10.6875,-12,0
47040,21.625,-9.6875,-13.8125,0
47060,20.1875,-9.0625,-16.4375,0
47080,19.75,-7.875,-18.5625,0
47100,19,-6.5,-19.4375,0
47120,18.75,-4.8125,-20.0625,0
47140,18.8125,-2.6875,-18.4375,0
47160,15.375,1,-17.375,0
47180,11.3125,4.375,-16.625,0
47200,8.4375,7.375,-15,0
47220,5.5625,10.6875,-13.25,0
47240,4.625,13.375,-12.125,0
47260,3.9375,16.0625,-12.1875,0
47280,6.9375,21,-11.3125,0
47300,7.9375,25.875,-8.3125,0
47320,10.375,36.8125,-4.75,0
47340,33.3125,55.75,-8.625,0
47360,81.0625,59.3125,-49.3125,0
47380,71.9375,47.6875,-66,0
47400,51.0625,43.9375,-54.3125,0
47420,55.9375,51.6875,-55.1875,0
47440,33.0625,52.3125,-67.1875,0
47460,19.4375,56.75,-93.0625,0
47480,30.0625,70.3125,-112.438,0
47500,47.8125,82.6875,-128.938,0
47520,55.9375,98.5,-142.75,0
47540,65.3125,116.938,-158.5,0
47560,67.0625,135.562,-177.562,0
47580,65.625,152.562,-198.438,0
47600,80.375,136.5,-213,0
47620,50.75,133.688,-213.188,0
47640,44.1875,137.688,-192.25,0
47660,62.75,135.188,-191.812,0
47680,45.4375,123.312,-195.438,0
47700,-4.0625,110.062,-199.062,0
47720,-37.125,110.688,-199.438,0
47740,-31.375,123.75,-195.938,0
47760,-7.5,131.25,-178.875,0
47780,-1.5625,133.5,-172.812,0
47800,-19.25,128.938,-176.875,0
47820,-35.4375,125,-175.75,0
47840,-38.5625,125.188,-160.25,0
47860,-31.75,125.062,-139.562,0
47880,-28.8125,119.25,-122.688,0
47900,-38.125,107.312,-112.062,0
47920,-56.9375,91.3125,-101.812,0
47940,-64.25,76.375,-80.875,0
47960,-64.1875,59.625,-57.3125,0
47980,-54.875,45.375,-40.75,0
48000,-42.625,31.125,-29.625,0
48020,-31.6875,17,-17.9375,0
48040,-17.25,5.625,-8.3125,0
48060,-3.375,-2.25,-1.125,0
48080,3.3125,-6,3.625,0
48100,-0.25,-7.8125,6.625,0
48120,-9.6875,-9.5625,7.125,0
48140,-15.8125,-13.125,7.9375,0
48160,-19.125,-15.4375,10.125,0
48180,-22.5,-16.8125,13.6875,0
48200,-26.0625,-18.75,17.5625,0
48220,-29.6875,-19.625,20.6875,0
48240,-29.3125,-20.625,25.6875,0
48260,-23.25,-21.8125,31.0625,0
48280,-19.875,-22.5625,35.8125,0
48300,-20.0625,-27.0625,38.8125,0
48320,-21.375,-28.6875,39.9375,0
48340,-23.9375,-31.25,43.1875,0
48360,-23.5,-37.375,48.9375,0
48380,-16.6875,-42.5625,55.125,0
48400,-7.625,-48.75,61.1875,0
48410,-5.75,-53.375,68.9375,0
48430,-11.9375,-57.6875,75.75,0
48450,-19.25,-62.6875,77.875,0
48470,-28.125,-66.875,79.8125,0
48490,-29.4375,-69.875,83.25,0
48510,-28.875,-72.625,88.9375,0
48530,-23.625,-80.25,93.125,0
48550,-20.6875,-90.4375,97.4375,0
48570,-23.375,-101.812,105,0
48590,-24.9375,-115,114.688,0
48610,-24.0625,-127.562,124.562,0
48630,-18,-137.938,132.312,0
48650,-14.375,-150.5,138.188,0
48670,-8.625,-158.25,144.562,0
48690,-5.375,-162.688,144.062,0
48710,-4.5625,-175.375,141.75,0
48730,4.8125,-186.375,131.188,0
48750,17.9375,-200.375,123.938,0
48770,48.9375,-206.875,119.312,0
48790,83.75,-209.625,128.938,0
48810,116.062,-203.188,124.562,0
48830,119.438,-190,123,0
48850,117.688,-167.125,107,0
48870,107.75,-139.75,90.6875,0
48890,78.6875,-116.5,68.5,0
48910,44.375,-93.5625,44.1875,0
48930,21.125,-70.6875,25.4375,0
48950,12.625,-49.5,11.0625,0
48970,20.5625,-21.0625,7.4375,0
48990,38.875,-3.5,2.625,0
49010,41,9.25,1.375,0
49030,33.3125,19.8125,-5.1875,0
49050,17.3125,29.75,-13.375,0
49070,4.8125,38.5625,-22.4375,0
49090,-4.5,40.0625,-33.25,0
49110,-11.125,38.5,-42.4375,0
49130,-15,39.5,-49.75,0
49150,-11.3125,43.25,-44.9375,0
49170,7.0625,45.375,-42.375,0
49190,20.4375,46.0625,-46.875,0
49210,-0.5,39.3125,-57.125,0
49230,-24.3125,31.3125,-68.0625,0
49250,-33.9375,27,-77.6875,0
49270,-33.4375,26.5625,-78.0625,0
49290,-26.375,28,-81.1875,0
49310,-33,29.3125,-85.8125,0
49330,-54.25,27.25,-97,0
49350,-74.75,24,-102.625,0
49370,-80.9375,23.375,-102.062,0
49390,-82.125,28.25,-100.188,0
49410,-85.75,44.6875,-82.875,0
49430,-63.6875,69,-54.5,0
49450,-41,82.75,-56,0
49470,-37.1875,79.75,-60.375,0
49490,-51.625,63,-55.1875,0
49510,-42.625,47.375,-38.8125,0
49530,-3.1875,44.0625,-28.3125,0
49550,45.3125,39,-32.0625,0
49570,50.6875,27.5625,-36.3125,0
49590,15.25,13.3125,-40.625,0
49610,-7.1875,0.5625,-36.875,0
49630,6.125,-5.4375,-24.125,0
49650,33.875,-7.9375,-15.6875,0
49670,48.375,-12,-13.1875,0
49690,37.0625,-17,-11.8125,0
49710,16.4375,-20.1875,-10.6875,0
49730,3.1875,-21.9375,-8.0625,0
49750,3.0625,-20.25,-2.75,0
49770,8.9375,-16.5,0.1875,0
49790,8,-12.4375,-1.375,0
49810,2.3125,-8.5,-3.5,0
49830,0.0625,-5.0625,-4.625,0
49850,0.4375,-3.625,-4.625,0
49870,-2.5,-4.625,-2.75,0
49890,-4.4375,-8.4375,-4.25,0
49910,1.3125,-14.625,-3.125,0
49930,4.3125,-21,-2.3125,0
49950,12.875,-29.625,-1.1875,0
49970,18.75,-39.3125,3.5625,0
49990,18.4375,-51.9375,11.25,0
50010,23.625,-63,19.0625,0
50030,34.25,-71.625,24.3125,0
50050,36.625,-82.125,31.125,0
50070,29.1875,-91,37.625,0
50090,13.125,-95.6875,38.9375,0
50110,3.0625,-98.25,45.875,0
50130,6.3125,-99.5,47.875,0
50150,16.6875,-95.375,47.0625,0
50170,22.6875,-84.6875,52.9375,0
50190,46.1875,-86.6875,54.6875,0
50210,59.6875,-90.1875,59.625,0
50230,47.5,-91.125,63.4375,0
50250,27.25,-88.75,58.4375,0
50270,18.5,-83.1875,54.875,0
50290,23.875,-74.625,51.4375,0
50310,24.625,-63.75,53.5,0
50330,18.25,-52.125,55.8125,0
50350,11.625,-41.6875,52.9375,0
50370,3.375,-30.75,48.6875,0
50390,-5.125,-20.1875,42.3125,0
50410,-10.5,-9.125,36.625,0
50430,-14.625,-1.8125,29.75,0
50450,-25.0625,2.0625,21.6875,0
50470,-33.875,6.625,12.5625,0
50490,-37,11.3125,1.6875,0
50510,-38.25,15.0625,-5.8125,0
50530,-39.8125,21,-11,0
50550,-44.625,20.9375,-19.5625,0
50570,-51.5625,15.9375,-23.1875,0
50590,-46.5625,16.625,-21.75,0
50610,-37.5,22.3125,-16.25,0
50630,-24.9375,26.1875,-10.375,0
50650,-20.3125,33.0625,-3.8125,0
50670,-30,44.5,-3.0625,0
50690,-29.75,55.4375,-1.75,0
50710,-26.5625,55.25,-8.125,0
50730,-21.5625,51.4375,-20.0625,0
50750,-19.5625,39.6875,-30.875,0
50770,-9.5,29.25,-38.875,0
50790,16.8125,19.875,-35.6875,0
50810,34.8125,13.4375,-30.8125,0
50830,34.375,5.0625,-23.875,0
50850,13.0625,-4.5625,-18.1875,0
50870,-7.75,-16.375,-14.3125,0
50890,-21.4375,-25.0625,-6.1875,0
50910,-23.4375,-27.25,2.4375,0
50930,-11.8125,-27.5,5.625,0
50950,-1.8125,-35.75,5.4375,0
50970,-17.125,-28.625,-6.5,0
50990,-29.0625,-46.3125,1.4375,0
51010,-21.5,-43.1875,8.875,0
51030,-37.25,-43.75,-0.875,0
51040,-17.6875,-48.8125,9.3125,0
51060,10.75,-44.625,13.6875,0
51080,-0.125,-39.125,8.0625,0
51100,-17,-33.25,8.6875,0
51120,-24.6875,-28.9375,7.875,0
51140,-25.25,-22.3125,6.9375,0
51160,-12.8125,-15.8125,6.5,0
51180,-3.6875,-9.1875,6.625,0
51200,-0.1875,-3.4375,5.9375,0
51220,-2.6875,0.5625,5.875,0
51240,-1.1875,4.1875,7.875,0
51260,-1,3.5,7.875,0
51280,-2.3125,0.25,4.9375,0
51300,-1.4375,-6.3125,4.3125,0
51320,-1.625,-12.25,3.375,0
51340,-4.5625,-17.5625,6.25,0
51360,-6.25,-19.5,3.75,0
51380,-3.375,-21.25,3.0625,0
51400,0.625,-21.8125,1.5625,0
51420,1,-19.375,0.0625,0
51440,-3.75,-17.5,-3.3125,0
51460,0.8125,-13.6875,-5.5625,0
51480,12.5,-9.3125,-4.125,0
51500,15.875,-3.6875,-3.4375,0
51520,12,-1.125,-4.8125,0
51540,4.9375,0.3125,-5.875,0
51560,-4.5625,2.125,-5.875,0
51580,-9.4375,2.6875,-5.1875,0
51600,-6.875,5.6875,-1.5625,0
51620,-3.4375,9.1875,-1.625,0
51640,-1.8125,16.125,-1.6875,0
51660,-0.3125,17.9375,-0.4375,0
51680,1.875,17.125,-1.75,0
51700,2,16,-3.6875,0
51720,3.375,13.4375,-5.5625,0
51740,5.125,13.5625,-4,0
51760,7.8125,13.375,-3.1875,0
51780,10,12,-2.75,0
51800,9,10.0625,-1,0
51820,7.0625,7.5,0.875,0
51840,5.625,5.5,3.1875,0
51860,5.6875,4.4375,4.4375,0
51880,5.75,3.6875,3.6875,0
51900,5,2.3125,0.25,0
51920,1.5625,1.375,-2.3125,0
51940,-1.6875,2,-3.625,0
51960,-2.5625,6,-5.25,0
51980,0.6875,8.25,-4.75,0
52000,4.125,9.25,-2.6875,0
52020,0.5,8.5,-1.9375,0
52040,-2.8125,6.9375,-1.0625,0
52060,-5.6875,6.3125,2.4375,0
52080,-1.4375,7.3125,3.125,0
52100,0.4375,8.375,3.5,0
52120,4.0625,7.4375,3.125,0
52140,3.6875,5.1875,3.1875,0
52160,1.25,2.0625,3.4375,0
52180,2.0625,-0.1875,2.3125,0
52200,3.3125,-1.125,0.6875,0
52220,4.0625,-1.5625,-0.875,0
52240,2.6875,-0.9375,-0.875,0
52260,0.5625,0,0.0625,0
52280,-1.6875,0.5,2.0625,0
52300,-3.8125,2.8125,3.5,0
52320,-1.25,6.4375,6.625,0
52340,-0.125,8.125,7.375,0
52360,-26,13.625,0.0625,0
52380,-42.1875,19.1875,-14.1875,0
52400,-28.125,17.0625,-22.375,0
52420,-14.9375,-0.25,-32.6875,0
52440,-16,-14.5625,-52.8125,0
52460,-25.75,-27.125,-75.375,0
52480,-31.5,-22.875,-85.8125,0
52500,-12.0625,-21.5625,-76.9375,0
52520,-39.25,-48.875,-59.75,0
52540,-84.0625,-18.1875,-57.375,0
52560,-204.188,55.4375,-38.5,0
52580,-327.875,89.125,-26.9375,0
52600,-341.688,95.4375,-42.375,0
52620,-269.938,73.4375,-46.5625,0
52640,-165.562,71.5625,-17,0
52660,-37.75,83.5,6.125,0
52680,71.8125,109.25,-0.375,0
52700,94.4375,119.938,-30.375,0
52720,63.125,121.812,-72,0
52740,12.1875,134.688,-106.062,0
52760,9.625,143.188,-114.25,0
52780,39.4375,134.75,-100.188,0
52800,83.75,138.125,-65.4375,0
52820,127.812,136.562,-28.1875,0
52840,167.188,119.812,-9.3125,0
52860,181.812,91.8125,-21.1875,0
52880,143.75,82.6875,-44.625,0
52900,108.438,97.875,-45.25,0
52920,106.438,131.875,-26.625,0
52940,125.062,157.188,-2.6875,0
52960,81.875,142.812,14.5,0
52980,-37.5,102.625,46.1875,0
53000,-140,69.25,54.0625,0
53020,-208.438,74.6875,59,0
53040,-237.562,101.438,85.875,0
53060,-218.938,118,113.562,0
53080,-128.938,109.812,124.312,0
53100,-50.1875,133.125,103.688,0
53120,-96.3125,167.375,71,0
53140,-195.562,160.5,41.1875,0
53160,-261.812,119.375,37.6875,0
53180,-237.062,92.625,59.4375,0
53200,-103.688,88.25,89.75,0
53220,8.25,90.9375,116.062,0
53240,30.1875,61.9375,120.625,0
53260,-18.9375,24.3125,93.9375,0
53280,-95,-3.125,57.4375,0
53300,-145.875,-28.5,40.6875,0
53320,-147.062,-54.0625,50.5625,0
53340,-95.25,-83.0625,63.125,0
53360,-34.8125,-107.75,72.75,0
53380,-6.375,-133.062,77.25,0
53400,-19.625,-160.938,85.9375,0
53420,-26.6875,-185.625,89,0
53440,-22,-214.75,83.5625,0
53460,11.9375,-236.188,75.5,0
53480,22.3125,-258.938,84.9375,0
53500,4.1875,-284.875,82.6875,0
53520,-23.125,-286.75,52.9375,0
53540,-5.0625,-232.75,23.9375,0
53560,73.375,-137.25,43.0625,0
53580,109.5,-17.125,73.8125,0
53600,80,85.9375,41.3125,0
53620,32.5625,129.75,10.4375,0
53640,86.875,129.625,73.9375,0
53660,185.938,90.9375,146.312,0
53670,149.812,10.625,145.625,0
53690,-28.375,-72.4375,118.812,0
53710,-158.438,-145.125,112.062,0
53730,-148.312,-178.438,118.5,0
53750,-85.8125,-201.25,143.25,0
53770,-22.375,-201.188,149.125,0
53790,-7.5625,-198.125,147.375,0
53810,-29.25,-196.562,138.625,0
53830,-60.375,-193.875,127.438,0
53850,-76.5625,-181.125,117.375,0
53870,-91,-151.625,92.0625,0
53890,-50.4375,-105.688,69.125,0
53910,58.4375,-78.1875,83.9375,0
53930,148.375,-124.938,106.938,0
53950,158.5,-146.438,120.438,0
53970,146.688,-123,130.25,0
53990,84.0625,-57,81.625,0
54010,63.3125,86.125,41,0
54030,64.9375,180.5,1.875,0
54050,101.625,258.438,-54.1875,0
54070,123.812,244.25,-24.875,0
54090,63.25,126.5,65.625,0
54110,-9.5625,38.4375,102.75,0
54130,38.9375,0.9375,76.875,0
54150,48.4375,12.5,11.375,0
54170,33,44.1875,-36.0625,0
54190,30.6875,42.875,-48.125,0
54210,44.0625,23,-14.5,0
54230,39.25,20.0625,2.9375,0
54250,12.8125,29.9375,-3.375,0
54270,0.0625,43.5625,2.1875,0
54290,3,57.375,1.375,0
54310,4.1875,64.5,-8.5625,0
54330,-0.125,65.75,-17.375,0
54350,-13.8125,60.25,-20.1875,0
54370,-4.125,59.25,-20.4375,0
54390,8.125,65.0625,-25,0
54410,10.6875,76.6875,-40.625,0
54430,-6.5625,89.3125,-53.9375,0
54450,-19.8125,102.625,-67.375,0
54470,-13.125,114.75,-70.9375,0
54490,14.5625,114.562,-68.5625,0
54510,35.5,104.312,-62.8125,0
54530,31.9375,95.25,-53.75,0
54550,36.5,92.3125,-57.5625,0
54570,36.375,93.5625,-65.3125,0
54590,28.875,96.875,-71.875,0
54610,24.9375,94.0625,-69.5,0
54630,25.125,88.625,-55.5625,0
54650,20.25,81.375,-41.375,0
54670,29.4375,67.625,-35,0
54690,33.3125,47.4375,-24.3125,0
54710,16.6875,28.4375,-13,0
54730,0.6875,14.5625,-1.25,0
54750,4.25,11.4375,7.8125,0
54770,12.8125,6.5,14.5,0
54790,1.5,-10.5,24.9375,0
54810,-16.625,-39.625,19,0
54830,-19.8125,-54.1875,24.125,0
54850,7.625,-46.875,46.625,0
54870,35.125,-37.9375,62.8125,0
54890,17.5,-34.5,66.3125,0
54910,-18.8125,-30.625,60.125,0
54930,-38.4375,-27.125,52.8125,0
54950,-37.75,-23.3125,54.0625,0
54970,-23.6875,-12.375,54.5,0
54990,-0.1875,-2.6875,55.0625,0
55010,12,4.125,48.9375,0
55030,12.625,4.75,44.5625,0
55050,2.75,5.25,35.9375,0
55070,-8.875,5.125,25.625,0
55090,-14.625,4.125,18.25,0
55110,-14.1875,6.4375,11,0
55130,-9.1875,8.0625,2.125,0
55150,-2.5,11.0625,-3.375,0
55170,3.1875,11.875,-8.3125,0
55190,4.1875,10.625,-9.75,0
55210,0.125,10.75,-13.125,0
55230,-9.5,10.0625,-16.375,0
55250,-17.4375,10.875,-18.125,0
55270,-20.8125,13.5625,-19.6875,0
55290,-16.875,14,-17.5,0
55310,-11.9375,14.5625,-14.8125,0
55330,-10.625,13.625,-17.4375,0
55350,-14.125,11.6875,-22.5625,0
55370,-18.625,7.8125,-24.5625,0
55390,-23.625,2.5,-25.375,0
55410,-27.625,-0.375,-27.4375,0
55430,-26.5,-3.25,-28.875,0
55450,-19,-4,-31.4375,0
55470,-8.75,-6.8125,-31,0
55490,2.3125,-10.125,-30.4375,0
55510,5.75,-14.125,-29.75,0
55530,-0.3125,-18.75,-30.8125,0
55550,-4.125,-21.5625,-32.5,0
55570,-2,-23.0625,-30.375,0
55590,5.4375,-23.3125,-27.125,0
55610,12.0625,-24.625,-21.625,0
55630,17.0625,-23.75,-17.125,0
55650,13.625,-23.75,-13.875,0
55670,4.9375,-22.125,-14,0
55690,-1.1875,-19.5,-15.0625,0
55710,-2.0625,-14.125,-16.0625,0
55730,0.0625,-9.75,-16.6875,0
55750,2.1875,-7.125,-16.5,0
55770,-5.125,-3.0625,-15.8125,0
55790,-33.75,-3.0625,-12.1875,0
55810,-101.062,-21.1875,-14.625,0
55830,-148.625,-41.375,-23.4375,0
55850,-156.125,-55.875,-28.5,0
55870,-113.625,-61.875,-29.6875,0
55890,-56.75,-60.3125,-38.625,0
55910,-11.8125,-62.625,-39.4375,0
55930,17.5625,-62.625,-45.125,0
55950,15.3125,-62.9375,-48.4375,0
55970,-1.8125,-63.8125,-49.25,0
55990,-18.3125,-65.5625,-48.5625,0
56010,-22.125,-60.0625,-53.25,0
56030,-22.75,-57.25,-57.1875,0
56050,-13.9375,-45.875,-62.5,0
56070,-18.9375,-39.4375,-62.4375,0
56090,-26.4375,-30.8125,-60.375,0
56110,-23.1875,-21.375,-58.625,0
56130,-22.9375,-12.5625,-62.0625,0
56150,-19.75,-6,-72.0625,0
56170,-31.75,-4.1875,-79.625,0
56190,-44,-1.375,-94.875,0
56210,-47.3125,-7.75,-111.375,0
56230,-47.0625,-18.3125,-122.125,0
56250,-37.75,-22.4375,-130.812,0
56270,-24.625,-27.25,-137.562,0
56290,-18.875,-35.4375,-140.438,0
56300,-16.3125,-38.75,-143.062,0
56320,-9.6875,-52.875,-130.625,0
56340,6.8125,-50.75,-121.562,0
56360,29.625,-53.25,-104.875,0
56380,50.3125,-57.8125,-79.875,0
56400,75.6875,-60.3125,-66.1875,0
56420,100.625,-55.375,-62.875,0
56440,120.625,-48.125,-56.4375,0
56460,127.562,-39.0625,-46.3125,0
56480,124.75,-23.6875,-42.5,0
56500,98.0625,-17.875,-28.9375,0
56520,73.25,1.0625,-16.4375,0
56520,86.875,28.9375,1.625,0
56540,101.562,55.4375,32.375,0
56560,62.6875,67.8125,63.125,0
56580,-1.25,76.8125,89.0625,0
56620,-8.8125,78.1875,113.75,0
56620,40.1875,95.875,148.938,0
56640,70,110.688,183.5,0
56660,58.5,112.438,200.188,0
56700,23.4375,114.938,209.5,0
56720,-3.3125,115.75,211.875,0
56740,-21.375,110.125,211.062,0
56760,-43.5625,106.188,217.875,0
56780,-69.4375,106.25,222.5,0
56800,-89.3125,86,213.062,0
56820,-132.375,54.4375,187.062,0
56840,-162.062,10,139.125,0
56860,-155.438,-45.625,78,0
56880,-132.375,-89.875,35.625,0
56900,-71,-113.062,11.125,0
56920,-24.4375,-121.375,4.75,0
56940,6.75,-139.25,0.9375,0
56960,15.125,-155.062,-1.4375,0
56980,-1.0625,-176.875,19.875,0
57000,-1.9375,-190.562,55.625,0
57020,18,-207.5,90.375,0
57040,46.5,-202.625,123.375,0
57060,68.5,-185.75,140.812,0
57080,56.375,-171.875,143.562,0
57100,26.875,-160.875,133.062,0
57120,4.125,-143.188,121,0
57140,14.8125,-120.562,107.625,0
57160,24.5,-100,101.688,0
57180,25.3125,-81.625,90.1875,0
57200,24.4375,-70.625,74.875,0
57220,31.375,-54.3125,68.5,0
57240,39.25,-33.625,62.5625,0
57260,30.5,-25.75,56.8125,0
57280,16.5625,-21.1875,53.3125,0
57300,21.625,-24.8125,42.6875,0
57320,41.3125,-23,28.3125,0
57340,41.5625,-40.625,11.6875,0
57360,28.9375,-44.6875,-0.5,0
57380,17.3125,-44.6875,1.625,0
57400,36.75,-39.25,11.375,0
57420,55.25,-33.125,15.5625,0
57440,48.4375,-26.4375,11.6875,0
57460,44,-28.5625,9.6875,0
57480,40.1875,-25.4375,4.875,0
57500,44.5,-16.8125,2.5,0
57520,34.1875,-7,-2.9375,0
57540,20.3125,-5.5,-6.125,0
57560,10.5625,8.9375,-5.5,0
57580,3.0625,18.375,-9.375,0
57600,-20.8125,12.9375,-13.5625,0
57620,-34.6875,4.8125,-6.5,0
57640,-11.375,-7.5,-1.1875,0
57660,-1.1875,-12.4375,-4.75,0
57680,-8,-5.1875,-17.625,0
57700,-8,-0.375,-7.125,0
57720,0.9375,2.6875,-1.1875,0
57740,11.6875,-2.625,-9.1875,0
57760,-8.3125,-1,-28.6875,0
57780,-17.6875,4.8125,-53.6875,0
57800,-46.8125,15.625,-47.3125,0
57820,-60.1875,28.75,-40.625,0
57840,-40.625,33.375,-42.1875,0
57860,-31.9375,47.125,-51.8125,0
57880,-44.8125,57.6875,-60.6875,0
57900,-48.9375,79.75,-71.9375,0
57920,-33.375,119.75,-82.5625,0
57940,-26.25,158.5,-95.9375,0
57960,-26.9375,193.75,-107.75,0
57980,-31.5,218.312,-123,0
58000,-65.125,216.438,-136.5,0
58020,-119,231.188,-145.25,0
58040,-153.438,205.875,-168.375,0
58060,-184.25,166.062,-203,0
58080,-176.188,124.375,-231.625,0
58100,-148,97.875,-231.188,0
58120,-42.1875,81.1875,-234.875,0
58140,60.5625,52.625,-243.938,0
58160,77.0625,18,-242,0
58180,67.6875,-4.1875,-238.188,0
58200,55.5625,-23.125,-233.625,0
58220,44.5,-36,-231.938,0
58240,30.4375,-26.5625,-229.438,0
58260,5.5625,-10.125,-191.125,0
58280,-30.75,8.75,-159.75,0
58300,-57.5,13.75,-140.312,0
58320,-68.1875,26,-126.625,0
58340,-70.25,30.9375,-110.125,0
58360,-53.875,41.6875,-91.3125,0
58380,-40.4375,43.9375,-69.8125,0
58400,-66.9375,49.875,-45.0625,0
58420,-117.312,58.3125,-22.9375,0
58440,-117.625,65.875,-3.9375,0
58460,-65.9375,71.875,23.9375,0
58480,-18.875,68,32.6875,0
58500,-6.3125,51.125,26.8125,0
58520,-12.0625,29.4375,10.875,0
58540,-7.625,5.3125,-2.875,0
58560,6.625,-15.5625,-17.25,0
58580,33.1875,-30.375,-28.125,0
58600,54.6875,-40.5625,-22.25,0
58620,53.3125,-45.375,-8.9375,0
58640,19.75,-44.5625,9.5,0
58660,-12.6875,-46.8125,15.8125,0
58670,-23.0625,-25.3125,34.5625,0
58700,-11.5,9.25,72.375,0
58720,-24.3125,23.9375,116.5,0
58740,-26.3125,40.9375,141.5,0
58760,-9.5,47.6875,158.375,0
58780,17.9375,46.3125,169,0
58800,50,45.75,168.875,0
58820,66.1875,40.0625,175.688,0
58840,69.3125,38.1875,182.125,0
58860,55,31.5,192.312,0
58880,36.1875,27.625,202.188,0
58900,30.0625,32.25,201.625,0
58920,32.5,50.625,210.062,0
58930,35.0625,44.8125,213.062,0
58950,24.25,34.6875,198.75,0
58970,-0.625,14.8125,166,0
58990,-16.25,2.5,136.938,0
59010,1.6875,-3.3125,119.375,0
59030,27.9375,-16.375,103.25,0
59050,36.25,-25.875,81.4375,0
59070,21.0625,-35.125,59.1875,0
59090,2.5625,-29.125,52.0625,0
59110,4.125,-17.875,48.5,0
59130,8.6875,-3.75,47.25,0
59150,10.0625,7.5625,50.125,0
59170,5,15.75,56,0
59190,17.1875,31.6875,66.375,0
59210,32,57.4375,82.6875,0
59230,47.5,81.625,104.5,0
59250,53.75,107.75,126.188,0
59270,42.4375,129.5,142.438,0
59290,23.1875,135,155.812,0
59310,3,130.5,160.5,0
59330,-3.4375,119,145.125,0
59350,-8.5,97.125,122.688,0
59370,-9.75,71.1875,97.1875,0
59390,-9.1875,46,73.25,0
59410,-11.75,15.375,43.5625,0
59430,-9.5,-5.625,13.75,0
59450,-0.6875,-18.5,9.8125,0
59470,5.25,-26.25,7.4375,0
59490,3.125,-36.375,-0.8125,0
59510,-13.75,-44.8125,-10.1875,0
59530,-13.125,-54.375,-17.375,0
59550,-9.375,-64.3125,-16.0625,0
59570,3.25,-78.9375,-16.3125,0
59590,-5.4375,-108.062,-20.125,0
59610,-17.9375,-120.812,-35.6875,0
59630,-23.0625,-134.438,-34.1875,0
59650,-12.1875,-140.188,-32.8125,0
59670,8.125,-138.938,-45.9375,0
59690,3,-141.062,-59.875,0
59710,-15.5625,-131.562,-86.8125,0
59730,-39.25,-123.25,-124.188,0
59750,-66.4375,-107.688,-152,0
59770,-81.0625,-77,-172.375,0
59790,-90.4375,-40.8125,-196.5,0
59810,-89.1875,-3.625,-202.312,0
59830,-87.625,23.5625,-200.438,0
59840,-99.375,34.625,-194.938,0
59860,-103.312,38.6875,-180.438,0
59880,-73.875,41.8125,-158.75,0
59900,-65.75,35.5625,-134.562,0
59920,-70.375,24.6875,-121.875,0
59950,-61.75,22.3125,-106.312,0
59970,-38.375,19.5,-91,0
59990,-17.1875,14.4375,-74.8125,0
60010,-8.4375,28.375,-61.375,0
60030,6.125,42.5,-50.3125,0
60050,5.625,47.75,-27.75,0
60070,-4.8125,61,-9.6875,0
60090,-10.1875,89.5,4,0
60110,-17.5,118.562,27.875,0
60130,-6.0625,130.5,41.3125,0
60150,-6.0625,126.5,20.625,0
60170,-43.625,113.375,-19.4375,0
60190,-79.625,88.4375,-72.9375,0
60210,-80.1875,57.1875,-122.375,0
60230,-57.1875,25.75,-149.688,0
60250,-3.9375,0.9375,-170.25,0
60270,33.4375,-24.75,-185.938,0
60290,27.125,-48.3125,-200.688,0
60310,-1.1875,-70.375,-208.188,0
60330,-31.6875,-88.0625,-214.25,0
60350,-50.125,-98.5,-218.125,0
60370,-37.5,-108.812,-219.5,0
60390,-8.6875,-115.125,-207.188,0
60410,26.625,-119,-182.5,0
60430,47.1875,-114.688,-166.938,0
60440,56.625,-102.312,-150.062,0
60440,57,-85.875,-124,0
60470,55.9375,-64,-102.562,0
60500,56.6875,-40.5625,-83.75,0
60520,63.5625,-9.875,-67.1875,0
60540,64.5625,38.5,-33.625,0
60560,56.25,92.0625,4.875,0
60580,61.1875,132.312,47.4375,0
60600,52.3125,161.062,91.125,0
60620,46.1875,194.312,127.938,0
60640,59.8125,205.938,160,0
60660,68.75,200,173.438,0
60680,75.1875,177.562,138.188,0
60700,27.0625,118.375,80.75,0
60720,-61.1875,77.9375,24.0625,0
60740,-107.125,20.375,-9.625,0
60770,-111.875,-18.125,-19.125,0
60790,-29,-40.6875,-46.6875,0
60810,19.75,-63.875,-66.375,0
60830,9.75,-81.1875,-77.9375,0
60840,-3.25,-103.312,-98.3125,0
60840,-21.875,-119,-115.438,0
60870,-30.875,-124.625,-113.688,0
60900,-25.625,-119.688,-107.875,0
60920,-4.6875,-109.938,-100.25,0
60940,8.9375,-90.625,-75.75,0
60970,14.25,-74.5625,-57.4375,0
60990,37.5625,-57.8125,-47.5,0
61010,44,-40.375,-41.875,0
61030,50.8125,-7.6875,-46.125,0
61050,50.3125,21.125,-48.375,0
61070,33.9375,52.625,-52.25,0
61080,1.375,80.8125,-41.8125,0
61080,-2.6875,113.25,-35.5625,0
61100,16.625,146.75,-34.1875,0
61130,39.3125,168.25,-50,0
61160,66.4375,187.625,-77,0
61180,85.9375,208.438,-92.25,0
61200,80.6875,212.938,-103.562,0
61230,5.75,188.688,-111.812,0
61250,-99.1875,168.562,-100.938,0
61270,-148.75,153.125,-52.5625,0
61290,-74.6875,148.062,-11.8125,0
61310,20,134.312,9.5625,0
61330,9.125,110.688,14.1875,0
61350,-61.5625,82.0625,13.875,0
61370,-117.562,58.5625,24.1875,0
61390,-103.5,36.5625,28.125,0
61410,-50.875,16.8125,24.375,0
61430,-30.5,-1.0625,17.625,0
61450,-40.25,-21.4375,7.8125,0
61470,-42.375,-38.5,6.1875,0
61490,-13.1875,-44.375,14.0625,0
61510,30.625,-43.625,20.6875,0
61530,40.25,-49.625,20.4375,0
61550,11.625,-59.75,16.6875,0
61570,-30.75,-74.6875,4.875,0
61580,-49.75,-89.6875,-18.375,0
61600,-30,-107.5,-34,0
61620,7.375,-116,-40.375,0
61640,39.6875,-130.312,-40.0625,0
61660,66.8125,-146.562,-41.5,0
61680,74.875,-154.125,-39.4375,0
61700,66.125,-154,-37.75,0
61720,55.875,-147.938,-33.9375,0
61740,44.625,-143.125,-22.8125,0
61760,74.8125,-121.438,-4.25,0
61780,97.5625,-98.25,36.75,0
61800,52.875,-86.5625,62,0
61820,-0.9375,-84.875,56.0625,0
61840,-36.3125,-79.5625,50.25,0
61860,-41.25,-63.25,65.1875,0
61880,-22.4375,-42.5625,79.1875,0
61900,-11.5,-13.3125,86.5,0
61920,-21.6875,6.5,91.9375,0
61940,-18.4375,32.875,87.1875,0
61960,-12.5625,51.75,88.0625,0
61980,-20.9375,66.25,88,0
62000,-36.625,89.625,95.1875,0
62020,-78.3125,100.438,102.75,0
62040,-121.062,103.75,93.25,0
62060,-120.75,98.5,73.3125,0
62080,-95.4375,93.875,87.0625,0
62100,-33.75,91.5625,118.938,0
62120,36.125,93.25,143.688,0
62140,64.1875,79.875,150.188,0
62160,39,54.6875,141.938,0
62180,0.375,29.3125,131.812,0
62200,-20.5,14.0625,127.625,0
62220,-15.1875,3.5,125.625,0
62240,10.3125,-8.6875,128.062,0
62260,63.375,-23.3125,125.688,0
62280,98.625,-41.6875,123.812,0
62300,111.062,-51.9375,123.125,0
62320,127.5,-46.1875,110,0
62340,126.625,-34.125,84.0625,0
62360,105.438,-17.25,50.375,0
62380,77.4375,0.5625,17.4375,0
62400,41.5625,19.25,-13.875,0
62420,-1.625,35.375,-38.9375,0
62440,-31.5625,41.25,-51.75,0
62460,-49.375,41.5,-59.6875,0
62480,-61.8125,27.0625,-51.6875,0
62500,-49.8125,18,-39.5625,0
62520,-23.125,14,-27.5625,0
62540,-8,9.125,-22.5,0
62560,-16.6875,-3.25,-24.4375,0
62580,-44.25,-14.625,-37.875,0
62600,-83.125,-26.875,-36.75,0
62620,-72.5,-30,-36.125,0
62640,-51.3125,-40.0625,-30.25,0
62660,-35.5625,-50.625,-21.25,0
62680,-6.875,-56.9375,-15.875,0
62700,16.3125,-69.4375,-13.375,0
62720,29.1875,-75.6875,-8.0625,0
62740,31.5625,-80.3125,-3.3125,0
62760,20.625,-89.3125,0,0
62780,-13.8125,-98.25,0.3125,0
62800,-28.0625,-108,3.0625,0
62820,-3.5625,-108.375,15.9375,0
62840,15.375,-108.75,26.5625,0
62860,-14.1875,-111.75,31.6875,0
62880,-57.8125,-118.062,32.375,0
62900,-64.25,-126.875,30.875,0
62920,-63.0625,-129.875,32.375,0
62940,-52.25,-113.25,61.125,0
62960,19.0625,-105.75,84.75,0
62980,-23.6875,-132.5,90,0
63000,-81.5,-170.75,85.3125,0
63020,-77.125,-195.125,83.125,0
63040,-30.5625,-208.062,99.3125,0
63060,18.125,-185.125,130.938,0
63080,12.25,-181.5,138.688,0
63100,-32.9375,-179.875,116.188,0
63120,-48.75,-173.312,97.1875,0
63140,-28.125,-159.312,93.125,0
63160,12.75,-143,97.125,0
63180,42.9375,-131.125,101.062,0
63200,42.1875,-125.5,102.562,0
63220,18.75,-121,100.75,0
63240,-3.9375,-118.25,94.375,0
63260,-5.3125,-109.25,84.8125,0
63280,-4.0625,-110.125,83.3125,0
63300,-29.25,-120.312,79.625,0
63320,-25.4375,-112.688,58.5,0
63340,-4.375,-106.938,49.6875,0
63360,0,-113.625,57.4375,0
63380,-16.5,-114.812,59.875,0
63400,-49,-105.25,33.5625,0
63420,-60.875,-106.375,8,0
63440,-46.25,-105.5,12.4375,0
63460,-24.5625,-112.562,10.375,0
63480,-14.5,-109.25,7.4375,0
63500,-22.875,-105,11.75,0
63520,-30.5625,-93.3125,9.3125,0
63540,-28.6875,-88.75,3.0625,0
63560,-15.6875,-78.8125,-5.0625,0
63580,-3.4375,-63.5,-24.5,0
63600,-0.125,-41,-50.3125,0
63620,2,-9.875,-68.25,0
63640,-0.6875,20.4375,-97.375,0
63660,12.9375,55.625,-118.062,0
63680,33.375,91.5,-121.875,0
63700,35.5,112.375,-113.438,0
63720,57.625,124.875,-94.4375,0
63740,74,133.625,-83.4375,0
63760,52.125,132.75,-88.8125,0
63780,22.8125,111.75,-90,0
63800,27.8125,104.062,-70.8125,0
63820,40.0625,108.062,-52.0625,0
63840,33.5625,114.188,-44.375,0
63860,52.1875,111.062,-46,0
63880,41.125,91.6875,-40.1875,0
63900,13.0625,87.1875,-27.625,0
63920,-7.375,90.75,-30.375,0
63940,-9.3125,87.5,-31.3125,0
63960,6.625,77.3125,-36.4375,0
63980,10.8125,70.0625,-36.9375,0
64000,-55.125,59.25,-30.3125,0
64020,-98.25,54.875,-43.5,0
64040,-90.125,55.8125,-50.0625,0
64060,-55.0625,46.625,-54.4375,0
64080,-13.5625,40.5625,-68.9375,0
64100,24.875,53.6875,-81.5625,0
64120,45.625,81.6875,-88.75,0
64140,54.3125,106.375,-75.5,0
64160,69.4375,146,-43.75,0
64180,96.8125,200.125,2.375,0
64200,124.75,246.875,31.6875,0
64210,124.812,279.25,47.375,0
64230,114.562,297.375,46.625,0
64250,87.375,279.625,22.5,0
64270,97.5,236.938,3.9375,0
64290,70,145.688,-28.5625,0
64310,-45,67.6875,-69.4375,0
64330,-135.562,4.25,-71.625,0
64350,-100.188,-6.0625,-40.6875,0
64370,5.875,-32.625,-65.125,0
64390,97.4375,-61.6875,-91.875,0
64410,80.9375,-69.625,-99.4375,0
64430,2.125,-86.375,-98.5625,0
64450,-54.6875,-102.375,-86.375,0
64470,-60.1875,-109.812,-75.75,0
64490,-37.375,-104.312,-71.8125,0
64510,-3.0625,-98.5,-68.125,0
64530,23.375,-93.5,-58.1875,0
64550,39.75,-74.9375,-48.25,0
64570,47.4375,-50.5,-31.6875,0
64590,50.3125,-15.3125,-13.3125,0
64610,66.0625,22.0625,1.3125,0
64630,79.4375,57.375,8.9375,0
64650,72.125,91.375,10.25,0
64670,8.4375,127.188,-2.9375,0
64690,-77.9375,198.438,-36.25,0
64710,-141.25,262.438,-40.5625,0
64730,-100.938,277.375,60.6875,0
64750,50.8125,264.312,146.688,0
64770,119.812,217.125,152.938,0
64790,17.25,175.375,134.5,0
64810,-89.875,139.188,142.188,0
64830,-80.3125,113.188,143.875,0
64850,-35.125,94.875,141.125,0
64870,-34.5625,32.9375,112.562,0
64890,26.0625,26.375,-0.5625,0
64910,10.625,8.875,-41.125,0
64930,-48.75,-13.3125,-15.8125,0
64950,-44,-7.75,7.3125,0
64970,-21.1875,0.0625,19.5,0
64990,-37.8125,2.1875,24.4375,0
65010,-45.0625,-0.375,15.5,0
65030,-48.375,3.375,4.8125,0
65050,-54.125,-0.8125,24.375,0
65070,-29.4375,-15.5625,37.625,0
65090,16.75,-53.3125,38.75,0
65110,15.4375,-93.5,4,0
65130,31.5625,-115.188,-23.3125,0
65150,32.625,-126.625,-27.5,0
65170,28.75,-124.312,2.125,0
65190,17.1875,-107.25,19.625,0
65210,-5.375,-91.5625,17.3125,0
65230,-24.0625,-61.8125,19.625,0
65250,-21.9375,-10.625,35.5,0
65270,-48.5625,45.0625,45.625,0
65290,-68.875,85.0625,26.375,0
65310,-64.25,115.875,6.5,0
65330,-5.625,122.062,8.6875,0
65350,54.5,123.375,55.25,0
65370,41.6875,123.25,83.4375,0
65390,-4,109.562,80.9375,0
65410,-15.25,72.25,64.4375,0
65430,24.5625,17.875,32.5,0
65450,38.625,-33.9375,36.4375,0
65470,80.5,-55.375,32.8125,0
65490,70.125,-55.25,43.5625,0
65510,44.4375,-51.5,35.4375,0
65530,23.8125,-43.5625,25.625,0
65550,12.3125,-50.75,20.25,0
65570,30,-52,36.375,0
65590,45.625,-41,39.25,0
65610,17.3125,-40.5,30.375,0
65630,1,-40.1875,28,0
65650,14.4375,-39.875,26.8125,0
65670,26.875,-38.25,27.4375,0
65690,29.1875,-27.1875,19.25,0
65710,23.5,-17.75,25.125,0
65730,13.0625,-1.9375,30.4375,0
65750,-22.1875,22.25,43.5,0
65770,-48.5625,52.875,37.8125,0
65790,-53.75,87.375,28.5625,0
65810,-15.6875,124.938,28.875,0
65830,23.25,128.625,35.3125,0
65850,37.625,121.625,43.625,0
65870,24.75,114.438,68.75,0
65890,16.125,113.438,74.5,0
65910,20.375,102.938,65.375,0
65930,35.8125,82.625,40.0625,0
65950,25.5,56.375,36.1875,0
65970,-2.75,21.9375,43.5,0
65990,2.375,-4.625,38.375,0
66010,17.3125,-19.375,33.375,0
66030,21.375,-29.4375,16.5625,0
66050,22.25,-35.8125,15.0625,0
66070,16.875,-37.1875,12.9375,0
66090,16.375,-41.3125,6.0625,0
66110,18.875,-43.5625,2.625,0
66130,14,-46.1875,1.125,0
66150,-9.4375,-48.125,0.125,0
66170,-23.9375,-49.9375,-5.1875,0
66190,-23.625,-51.375,-11.375,0
66210,-23,-57.25,-14.75,0
66230,-13.5625,-60.9375,-19.3125,0
66250,-12.9375,-61.1875,-27.1875,0
66270,-19.0625,-60.75,-34.875,0
66290,-12.8125,-55.25,-35.0625,0
66300,-6.375,-44.9375,-39.5,0
66340,-22.5,-37.0625,-35.8125,0
66340,-48.125,-22.9375,-42.625,0
66350,-67.3125,-0.625,-54.5,0
66380,-62.6875,15.75,-63,0
66410,-44.4375,35.125,-60.6875,0
66430,-35.6875,40.1875,-58.875,0
66450,-17.375,35.1875,-65.6875,0
66470,-8.8125,32.9375,-61.3125,0
66490,-1.375,36.75,-45.375,0
66510,-1.75,38.875,-41.125,0
66530,-15.875,36.75,-38.375,0
66550,-28.1875,25.9375,-50.0625,0
66570,-15.875,5.9375,-50.75,0
66590,6.125,-14.1875,-53.1875,0
66600,8.6875,-35.4375,-48.8125,0
66620,16.1875,-47.125,-45.25,0
66620,15.6875,-52.125,-48.25,0
66640,2.6875,-52.6875,-52.625,0
66680,-9.5625,-52.9375,-60.9375,0
66710,1.0625,-54,-52.9375,0
66730,7.25,-54.25,-45.25,0
66750,-7.125,-57.1875,-48.125,0
66770,-27.3125,-60.4375,-58.25,0
66790,-27.125,-60.9375,-61.875,0
66810,-17.6875,-60,-54.4375,0
66830,-5.25,-58.5625,-47.5,0
66840,-12.6875,-56.25,-48.125,0
66860,-23,-58.125,-51,0
66860,-25.4375,-59.9375,-56.75,0
66880,-15.0625,-63.3125,-60.9375,0
66900,-8.3125,-61.625,-64.875,0
66920,-7.1875,-53.875,-63.4375,0
66920,-2.375,-42.6875,-66.0625,0
66940,-14.625,-39.5,-63.25,0
66980,-33.5,-27.4375,-55.1875,0
67020,-37.8125,-11.375,-50.9375,0
67040,-23.625,14.375,-44.0625,0
67060,-11.6875,39.8125,-37.1875,0
67080,-20.375,63.75,-32.5625,0
67100,-28.3125,74.75,-31.875,0
67120,-31.3125,78.25,-31.75,0
67140,3.5625,82.1875,-18.4375,0
67160,15.875,91.5,-0.5625,0
67180,-6,102.125,8.1875,0
67200,-5.75,111.125,9.625,0
67220,37.75,115.688,27.9375,0
67240,52.125,92,48.0625,0
67260,10.5625,63.6875,39.5625,0
67280,-25.875,44.625,28.1875,0
67300,-10.4375,19.1875,28.375,0
67320,41.3125,-10.75,26.4375,0
67340,56.8125,-20.125,13,0
67360,56.0625,-25.75,-7.9375,0
67380,28.75,-30.4375,6.125,0
67400,9.375,-28.125,15.125,0
67420,9.6875,-23.875,9.0625,0
67440,11.875,-21.5,0.3125,0
67460,9.1875,-25.9375,1.625,0
67480,22.4375,-29.5,9.0625,0
67500,28,-33.5625,12.0625,0
67520,9.375,-37.75,10.1875,0
67540,0.6875,-35.5,11,0
67560,8.0625,-32.375,17.5,0
67580,1.25,-35.875,23.3125,0
67600,-4.5,-36.25,17.9375,0
67620,1.75,-31.3125,18.8125,0
67640,5.875,-23.9375,19.4375,0
67660,8.3125,-10.3125,25.5,0
67680,8.0625,9.5,31.25,0
67700,-5.5625,33.5,21,0
67720,1.25,50.75,14.875,0
67740,24.4375,63.375,22,0
67760,34.3125,72.625,38.25,0
67780,25.4375,80.8125,55.25,0
67800,-10.875,90.3125,77.875,0
67820,-31.125,93.8125,83.6875,0
67840,-23.25,103.625,89.375,0
67860,3.75,106.125,99.125,0
67880,4.5,100.5,94.25,0
67900,-21.4375,96.625,81.125,0
67920,-37.0625,94.9375,84.3125,0
67940,-21.625,92.75,97.1875,0
67960,-12.8125,85.9375,98.625,0
67980,-24.0625,72.1875,88,0
68000,-37.4375,59.9375,76.8125,0
68020,-29.9375,48.625,76.25,0
68040,-12.0625,40.875,87.5,0
68050,-4,36.375,98.4375,0
68060,-17.5625,33.75,106.75,0
68100,-24.1875,32.6875,113.188,0
68120,-9.9375,25.9375,115.938,0
68140,-0.6875,17.1875,111.562,0
68160,-2.875,7.1875,102.688,0
68160,1.875,2.25,91.3125,0
68180,16.4375,-2.9375,86.875,0
68200,7.25,-9,79.875,0
68240,-15.25,-19.6875,65.8125,0
68260,-23.25,-26.9375,47.75,0
68280,-22.875,-32.4375,35.625,0
68300,-17.6875,-35.5,28,0
68320,-11.625,-37.375,16.625,0
68340,-15.3125,-35.375,13.8125,0
68360,-14.9375,-32.0625,5.5,0
68380,-17.75,-31.75,-0.875,0
68400,-11.4375,-31.5,-1.625,0
68420,-14.375,-30.6875,-2.625,0
68440,-25,-32.0625,-12.0625,0
68460,-17.0625,-33.5,-15.9375,0
68480,-11.625,-40.5,-26.6875,0
68480,-6.4375,-47.5625,-43.6875,0
68500,-0.9375,-51.625,-53.125,0
68520,-7.4375,-52.3125,-64.5625,0
68540,-3.375,-50.0625,-78,0
68580,-0.0625,-46.4375,-96,0
68600,25.5,-29.1875,-107.688,0
68620,26.9375,-19.875,-125.625,0
68640,44.0625,-17.75,-135.812,0
68660,29,-18.6875,-140.938,0
68680,20.9375,-30.6875,-148.25,0
68700,6.375,-43.125,-142.562,0
68720,-0.8125,-49.875,-142.375,0
68740,-5.6875,-49.125,-137.125,0
68760,-5.375,-46.25,-136.062,0
68780,-5.3125,-41.75,-133.062,0
68800,-9.25,-42.625,-130.938,0
68820,-8.125,-45.8125,-128.562,0
68840,0.6875,-52.125,-130.875,0
68860,7.25,-56.4375,-137.438,0
68880,14.4375,-60.3125,-133.25,0
68900,2.5,-65.75,-120.562,0
68920,-20.4375,-71.1875,-122.75,0
68940,-31.125,-70.0625,-129.375,0
68960,-25.6875,-67.4375,-129.062,0
68980,-13.375,-62.1875,-121.062,0
69000,-1.8125,-51.6875,-108.312,0
69020,-3.0625,-46.375,-102.312,0
69040,-14.0625,-42.25,-101.75,0
69060,-14.125,-40.4375,-105.125,0
69080,-11.5,-43.5625,-105.562,0
69100,-25.1875,-46.125,-103.625,0
69120,-34.125,-43.9375,-102.5,0
69140,-31.0625,-41.625,-101.75,0
69160,-36.125,-42.5,-107.5,0
69180,-47.0625,-46,-121.812,0
69200,-57.5,-41.625,-134.188,0
69220,-66.3125,-24.0625,-143.438,0
69240,-74.625,4,-147.188,0
69260,-68.875,32.875,-129.938,0
69280,-69.1875,66.375,-109.75,0
69300,-69.125,100,-102.688,0
69320,-65.3125,121.938,-93.375,0
69340,-53.25,129.875,-85,0
69360,-54.25,136.75,-76.4375,0
69380,-55.0625,151.188,-70.875,0
69400,-41.75,148.25,-54.0625,0
69420,-17.875,145.125,-35.25,0
69440,-2.875,148.562,-27.8125,0
69460,-6.3125,144.062,-25.375,0
69470,-5.25,137.938,-10.0625,0
69490,-19.125,99.3125,2.25,0
69510,-68,64.3125,-25.8125,0
69530,-54.4375,40.75,-73.625,0
69550,-11.9375,38.75,-57.9375,0
69570,68.4375,53.375,-13.875,0
69590,70.0625,47.375,11.5625,0
69610,-27.9375,21.375,9.625,0
69630,-85.6875,-5.375,4.25,0
69650,-56.8125,-24.875,4.5,0
69670,25.375,-21.75,0.4375,0
69690,56.5,-12,16,0
69710,58,-0.9375,26.8125,0
69730,18.6875,-3.5625,8.875,0
69750,1.9375,-11.875,10.5625,0
69770,14.0625,-3.6875,6.0625,0
69790,50.375,1.875,-0.875,0
69810,36.125,-1.75,12.3125,0
69830,6.5,-5.8125,-4.0625,0
69850,8.125,-16.1875,-5.5,0
69870,29.75,-28,9.1875,0
69890,27,-32.9375,12.6875,0
69910,19.375,-39.4375,15,0
69930,8.4375,-34.25,7.5625,0
69950,22.5625,-24.625,-14,0
69970,53.75,1.0625,-16.5625,0
69990,67.625,17.8125,-18.9375,0
70010,38.6875,13.125,-20.125,0
70030,7.4375,4.875,-24.875,0
70050,-2.8125,4.375,-24.4375,0
70070,-10.625,11,-17.5,0
70090,-21.3125,15.0625,-19.375,0
70110,-34.625,23.625,-16.9375,0
70130,-53.1875,35.1875,-14.625,0
70150,-64.25,48.5625,-15.875,0
70170,-49.9375,38.3125,-12.625,0
70190,-46.8125,21.375,5.125,0
70210,-47.4375,5,10.8125,0
70230,-60.3125,10.0625,20.9375,0
70250,-79.5,15.8125,2.3125,0
70270,-80.9375,14.3125,-21.8125,0
70290,-56.6875,10.8125,-25.125,0
70310,-16.6875,33.9375,-3.6875,0
70330,-18.125,40.75,9.1875,0
70350,-34.3125,24.3125,-24.8125,0
70370,-48.375,3.75,-22.3125,0
70390,-56.3125,18.75,-13.125,0
70410,-41.8125,40.5625,-22.0625,0
70430,-19.75,39.8125,-36.5625,0
70450,-19.5,21.9375,-28.5,0
70470,-8.4375,13.1875,-15.9375,0
70490,-0.375,14.375,-9.5625,0
70510,-5.75,29.75,-4.375,0
70530,-8,0.5,-37,0
70550,47.9375,-26.4375,-28.75,0
70570,120.062,-24.1875,-9.5625,0
70590,139.625,-17,-7.4375,0
70610,62,-20.875,-0.6875,0
70630,-22.625,-37.4375,-0.1875,0
70650,-1.5625,-54,5.5625,0
70670,45.375,-50.9375,4.875,0
70690,54.5625,-34,-5.0625,0
70710,44.8125,-18.125,-23.25,0
70730,35.0625,-0.625,-20.9375,0
70750,34.5,2.75,-20.4375,0
70770,44.0625,6.875,-3.0625,0
70790,25.875,5.8125,2.125,0
70810,25.625,3.5,-11.4375,0
70830,30.1875,8.3125,-2.9375,0
70850,4.3125,-9.4375,5.6875,0
70870,-32.125,-23.8125,5.625,0
70890,-52.875,-28.25,15.4375,0
70910,-63.625,-22.8125,14.5625,0
70930,-66.9375,-11.75,12.125,0
70950,-65.1875,-1.125,12.125,0
70970,-57.125,9.5625,14.3125,0
70990,-48.625,18.8125,18.9375,0
71010,-58.125,13.125,13.375,0
71030,-49.6875,10.5625,2.25,0
71050,-33.75,23.9375,8.9375,0
71070,-17.5,28.625,-6.875,0
71090,1.625,30.9375,-11.625,0
71110,10.25,30.5,-7.1875,0
71130,14.75,27.1875,-7.375,0
71150,5.3125,16.3125,-9.375,0
71170,6.625,16.625,0.3125,0
71190,-11.125,20.125,4,0
71210,-25.0625,14.9375,-7.1875,0
71230,-18.75,8.0625,-6.8125,0
71250,7.4375,15.75,3.4375,0
71270,5.1875,24.8125,4.5625,0
71290,-10.375,19.5,-5.125,0
71310,-10.625,18.375,-0.375,0
71330,11,13.1875,5.8125,0
71350,33.6875,11.375,18.9375,0
71370,48.1875,-2.375,27.375,0
71390,56.125,-13.25,27.375,0
71410,59.8125,-19.875,23,0
71430,70.125,-23.625,22.0625,0
71450,67.8125,-28.375,21.6875,0
71470,46,-20.6875,12.375,0
71490,37.25,-20.9375,-0.125,0
71510,56.875,-21.125,-3.9375,0
71530,67.875,-12.5,-10.5,0
71550,48.5,-10.8125,8.6875,0
71570,18.3125,-1.875,-12.625,0
71590,27.3125,18.25,-24.875,0
71610,33.9375,31.125,-5.6875,0
71630,12.3125,28.0625,4.125,0
71650,8.375,20.0625,-12.75,0
71670,26.5625,11.8125,-11.5625,0
71690,36.875,3.625,-11.375,0
71710,46.0625,1,-17.4375,0
71730,33.6875,-3.75,-12.1875,0
71750,36.375,-11.5625,-6,0
71770,47.9375,-22.875,-3.375,0
71790,61.4375,-28.6875,-5.9375,0
71810,44.375,-44.25,8.875,0
71830,30.8125,-49.4375,17.9375,0
71850,19.125,-61.9375,33.125,0
71870,-8.8125,-76.4375,58.125,0
71890,-24.5625,-82.125,68.6875,0
71910,-29.25,-75.6875,75.1875,0
71930,-36,-65.75,94.5625,0
71950,-64.0625,-63.0625,113.562,0
71970,-84.6875,-58.625,113.125,0
71990,-86.125,-47.375,103.75,0
72010,-78.5625,-38.8125,100.062,0
72030,-77.75,-33.3125,100.375,0
72050,-71.6875,-28.1875,95.125,0
72070,-74.4375,-20.9375,82.125,0
72090,-82,-12.4375,69.5,0
72100,-83.5,-13.1875,51.8125,0
72120,-84.75,-15.875,38.4375,0
72140,-70.5,-18.125,33.25,0
72160,-30.8125,-46.6875,49.625,0
72180,26.0625,-81.6875,67.625,0
72200,69.9375,-81,84.75,0
72220,91.4375,-75.375,95.4375,0
72240,94.5,-76.4375,97.1875,0
72260,70.0625,-84.4375,89.5,0
72280,50.3125,-95.125,57.5625,0
72300,69.6875,-83,17.1875,0
72320,91.0625,-76.75,-7.375,0
72340,98.75,-82.25,-21.3125,0
72360,79.0625,-93.5,-43.9375,0
72380,27.0625,-102.438,-66.3125,0
72400,-8.625,-104.375,-82.5,0
72420,-34.1875,-109.312,-99.3125,0
72440,-36.6875,-107.062,-108.875,0
72460,-26,-89.8125,-106.562,0
72480,4.5625,-67.4375,-104.812,0
72500,40.1875,-46.625,-91.0625,0
72520,62,-28.75,-61.625,0
72540,65.9375,-22.75,-42.1875,0
72560,60.625,-31.75,-41.3125,0
72580,45.3125,-55.25,-38.4375,0
72600,2.625,-65.1875,-31.3125,0
72620,-37.875,-63.75,-28.8125,0
72640,-43.9375,-62.75,-19.875,0
72660,-25,-56.5,-8.9375,0
72680,-10.1875,-46.875,-1.5625,0
72700,-7.6875,-49.125,7.4375,0
72720,7.5,-51.25,22.75,0
72740,-8,-56.25,23.375,0
72760,-19.25,-56.75,18.0625,0
72780,-25.3125,-52.5625,30.4375,0
72800,-15.1875,-56.875,27.6875,0
72820,3.875,-58.6875,35.75,0
72840,-3.25,-58.9375,32.125,0
72860,-18.75,-53.8125,34.3125,0
72880,-10.9375,-41.6875,35.5625,0
72900,7.375,-24.75,35.5625,0
72920,22.625,-9.875,30.625,0
72920,15.125,-2.5,24.4375,0
72940,1.375,20.3125,18.8125,0
72960,-7.125,29.1875,20.3125,0
72980,-6.0625,41.5625,24,0
73020,-15.5,52.5,27.375,0
73040,-41.9375,64.0625,19.3125,0
73060,-78.9375,81.625,-0.8125,0
73080,-108.625,68.625,-17.1875,0
73100,-148.125,44.375,-11.6875,0
73120,-159.25,30.875,-5.4375,0
73140,-97,32.3125,2.9375,0
73160,-0.25,46.625,17.375,0
73180,43.625,51.1875,18.5625,0
73200,19.6875,30.1875,7.625,0
73220,-24.625,17.9375,-7.875,0
73240,-60.6875,5.8125,-15.75,0
73260,-66.625,-5.75,-14.0625,0
73280,-42.5625,-11.4375,-11.25,0
73300,-18.625,-12.3125,-10.375,0
73320,-2.1875,-8.875,-9.25,0
73340,-3.9375,-9.1875,-4.625,0
73360,-22.75,-13.0625,-3.8125,0
73380,-41.1875,-17.6875,-5.75,0
73400,-47.9375,-15.5,-11.9375,0
73420,-39.5,-10.9375,-18.3125,0
73440,-27.4375,-3.625,-21.0625,0
73460,-16.625,6.0625,-25,0
73480,-7.5625,14.375,-28.875,0
73500,-0.8125,19.375,-28.6875,0
73520,3.1875,22.0625,-26.3125,0
73540,-0.5,22.6875,-25.3125,0
73560,-7.6875,23,-25.0625,0
73580,-18.625,23.25,-23,0
73600,-20.8125,24.8125,-20.4375,0
73620,-21.3125,23.125,-14.875,0
73640,-23.625,22.75,-6.75,0
73660,-28.8125,22.1875,-1.1875,0
73680,-39.375,21,2.375,0
73700,-46.875,21.375,1.875,0
73720,-42.8125,21.0625,1.8125,0
73740,-33,21.5,4.0625,0
73760,-30.0625,23.6875,5.625,0
73780,-31.875,25.1875,3.625,0
73800,-31.875,23.875,3.0625,0
73820,-31.4375,22.625,4,0
73840,-32.3125,20.3125,3.5,0
73860,-33,17.5625,1.375,0
73880,-31.0625,16.125,0.5625,0
73900,-25.9375,15.125,-0.375,0
73920,-22.6875,14.8125,0.125,0
73940,-18,13.0625,1.3125,0
73960,-17.4375,10.0625,2.1875,0
73980,-16.875,7.3125,0.25,0
74000,-11.4375,7.375,-2.3125,0
74020,-6.875,7.8125,-0.5,0
74040,-4.125,5.5625,1.25,0
74060,1.4375,4.8125,1.875,0
74080,-0.4375,4.375,3.625,0
74100,-3.9375,3.6875,5.0625,0
74120,-6.8125,2.75,5.4375,0
74140,-5.375,2.25,4.6875,0
74160,-1.3125,0.875,4.5625,0
74180,2.4375,-0.1875,4.25,0
74200,4.5,-1.75,4.625,0
74220,4.6875,-4.3125,4.1875,0
74240,3.375,-6.0625,3.375,0
74260,3.375,-7,2.5625,0
74280,5,-7.875,3,0
74300,8,-8.625,3.8125,0
74320,7.5,-10,3.8125,0
74340,9.5625,-9.9375,2.5,0
74360,10.8125,-10.75,2.25,0
74380,10.25,-11.125,2.25,0
74400,11,-12,2.125,0
74420,11.1875,-12.375,3.375,0
74440,12.125,-12.5,3.1875,0
74460,11.3125,-11.9375,0.9375,0
74480,13,-12.1875,0.0625,0
74500,16.375,-12.75,1,0
74520,13.5,-13.5625,2.3125,0
74540,7.25,-13.75,1.25,0
74560,2.125,-11.25,-1.8125,0
74580,4.8125,-9.625,-2.0625,0
74600,9.0625,-9,1.3125,0
74620,9.5,-8.8125,3,0
74640,8.0625,-8.1875,2,0
74660,7.875,-8.1875,2.0625,0
74680,7.125,-8.1875,2.3125,0
74700,5.375,-7,0.5,0
74720,7.375,-5.6875,-1.4375,0
74730,10.4375,-5.125,-0.625,0
74750,10.125,-5.4375,0.375,0
74770,7.3125,-3.9375,-2.4375,0
74790,9.3125,-3.9375,-3.1875,0
74810,9.125,-4.75,-1.5,0
74830,6.25,-5.1875,-1.375,0
74850,3.125,-4.5625,-3.625,0
74870,3,-3.125,-5.375,0
74890,6.0625,-2.6875,-5.25,0
74910,8.0625,-3.5625,-4.8125,0
74930,9,-5.1875,-5.25,0
74950,6.3125,-6.75,-6.375,0
74970,4.625,-6.375,-8.6875,0
74990,6.875,-6.6875,-9.0625,0
75010,9.25,-8.25,-6.9375,0
75030,8.3125,-9.1875,-6.9375,0
75050,6.4375,-9.125,-8.5,0
75070,0.75,-7.1875,-7.875,0
75090,-2.25,-4.4375,-7.9375,0
75110,3.375,-2.625,-5.375,0
75130,5.6875,-0.875,-1.9375,0
75150,2.25,0.3125,-0.6875,0
75170,-7.125,5,-0.6875,0
75190,-13.375,8.625,2.0625,0
75210,-14.25,9.6875,6.875,0
75230,-18.4375,9.125,14.875,0
75250,-26.9375,11.5,22.3125,0
75270,-36.5,12.5625,28.375,0
75290,-37.1875,12.3125,31.6875,0
75310,-29.875,13.375,33.3125,0
75330,-22.875,15.3125,33.4375,0
75350,-18.0625,14.9375,33.625,0
75370,-22.0625,15.375,32.75,0
75390,-25.0625,14.875,32.75,0
75410,-22.125,13.5625,32.625,0
75430,-18.5625,9.8125,32.25,0
75450,-18.4375,9.375,27.25,0
75470,-11.125,8.4375,22.3125,0
75490,-8.5625,7.8125,19.625,0
75510,-6.0625,7.25,14.875,0
75530,-3.8125,8,12.5,0
75550,-3.6875,9.9375,11,0
75570,-2.9375,11.25,8.9375,0
75590,0.75,11.4375,9.75,0
75610,1.5,10,9.8125,0
75630,-0.6875,8.125,6.25,0
75650,-0.4375,7.5,5.125,0
75670,0.125,6.1875,6.4375,0
75690,1.1875,3.1875,7.5,0
75710,1.875,0.3125,5.0625,0
75730,2.5625,-2.0625,2,0
75750,3.9375,-3.4375,-0.1875,0
75770,3.625,-4.5625,-2.625,0
75790,4.8125,-5.625,-6,0
75810,4.125,-8.125,-7.25,0
75830,-3,-9,-6.75,0
75850,-3.625,-5,-9.3125,0
75870,1.9375,-4.375,-7.875,0
75890,2.4375,-4.6875,-4.75,0
75910,1.125,-5.5625,-2.8125,0
75930,-1.25,-4.75,-1.5625,0
75950,-4.375,-5.375,0.0625,0
75970,-2.0625,-6.375,0.25,0
75990,2.375,-7.5,-0.5,0
76010,3.6875,-8.4375,-1.5,0
76030,5.9375,-10.1875,-2.6875,0
76050,8.1875,-11,-5.5,0
76070,11.1875,-11.125,-8.1875,0
76090,15.0625,-11.0625,-10.375,0
76110,20.5,-11.9375,-11.9375,0
76130,25.5,-13,-15.3125,0
76150,29.8125,-15.3125,-17.125,0
76170,29.75,-17,-19.4375,0
76190,31.9375,-16.5625,-22.375,0
76210,34.875,-15.875,-23.1875,0
76230,34.9375,-16.0625,-22.75,0
76250,33.5,-14.75,-21.5625,0
76270,25.3125,-12.1875,-19.9375,0
76290,20.125,-5.8125,-23.125,0
76310,29.375,-2.4375,-20.1875,0
76330,31.1875,-3.25,-12.75,0
76350,26.1875,-2.0625,-10.4375,0
76370,18.5,-0.625,-10.6875,0
76390,10.9375,1.25,-9.5,0
76410,10.4375,3.4375,-7.5,0
76430,6,4,-4.625,0
76450,6,3.1875,-3.5625,0
76470,1.125,1.25,-2.375,0
76490,-1.6875,1.1875,-3.875,0
76510,-1.375,0.4375,-5.6875,0
76530,-1.375,-2.3125,-7.4375,0
76550,2.6875,-0.8125,-7.5,0
76570,1.8125,-0.8125,-6.75,0
76590,2.6875,-1,-6.75,0
76610,5.375,-1.3125,-7.0625,0
76630,7.25,-1.8125,-7.625,0
76650,7.4375,-2.8125,-7.6875,0
76670,5.375,-4.875,-8.0625,0
76690,1.25,-6.25,-9.25,0
76710,1.1875,-6.0625,-11.0625,0
76730,1.1875,-5.5,-11.375,0
76750,2.6875,-1.625,-9.5625,0
76770,4.8125,0,-5.875,0
76790,5.5,1.6875,-2.375,0
76810,2.875,5.1875,-1.875,0
76830,-1.875,10.5625,-3.375,0
76850,-1.125,15.75,-1.75,0
76870,-5,21.25,0.25,0
76890,-7.6875,33.9375,-4.1875,0
76910,3.4375,55.9375,-11.0625,0
76930,5.375,68.5,-18.5625,0
76950,-23.125,82.4375,-31,0
76970,-46.25,99.8125,-36.625,0
76990,-51.875,109.062,-31.8125,0
77010,-60.625,112.375,-17.5625,0
77030,-57,114.438,-1.5625,0
77050,-17.875,108.375,9.5625,0
77070,14.875,98.8125,19.375,0
77090,1.8125,86.875,22.625,0
77110,-38.875,60.625,16.25,0
77130,-58.5,50.25,9.75,0
77150,-69.625,22.8125,0.25,0
77170,-35.9375,16.25,3.4375,0
77190,5.6875,23.5625,9.1875,0
77210,14.5625,26.125,18.1875,0
77230,9.625,25.125,22.75,0
77250,15,20.8125,24.4375,0
77270,10.9375,-0.1875,24,0
77290,-13.6875,-21.3125,19.6875,0
77310,-19.0625,-22.9375,3.375,0
77330,-22.875,-34.6875,-15.125,0
77350,-31.4375,-52.6875,-44.4375,0
77370,-46.25,-74.75,-61.9375,0
77380,-52.1875,-96.1875,-78.3125,0
77400,-50.5,-109.562,-101.75,0
77420,-27.4375,-103.5,-79.875,0
77440,-19.5,-99.625,-40.75,0
77460,-9.625,-80.375,-15.3125,0
77480,-7.625,-65,-3.25,0
77500,-34.125,-55.75,-1.5625,0
77520,-52.8125,-42.25,-5.1875,0
77540,-52.1875,-32,-4.5,0
77560,-43.5625,-31.5625,0.1875,0
77580,-23.9375,-32.4375,-2.5625,0
77600,-7.6875,-27.6875,9.3125,0
77620,-3.9375,-15.5625,20.25,0
77640,-13.625,-12.375,24.5625,0
77660,-34.5625,-11,18.1875,0
77680,-20.25,-10.625,10.6875,0
77700,-0.0625,-10.1875,17.125,0
77720,14.625,-9.4375,22.0625,0
77740,17.75,-8.3125,22,0
77760,7.25,-11.4375,17.8125,0
77780,5.4375,-11.25,13.875,0
77800,10.6875,-11.0625,11.5,0
77820,19.9375,-10.6875,8.25,0
77840,25.75,-10.25,7.4375,0
77860,26.0625,-9.75,7.625,0
77860,22.25,-9.5,2.5,0
77880,17.875,-6.75,-7.4375,0
77890,25,-1.125,-12.375,0
77920,25.875,1.75,-3.3125,0
77940,18.125,-1.375,2.75,0
77960,20.6875,-1.125,9.25,0
77980,18.75,-13,14.0625,0
78000,9.0625,-15.75,15.125,0
78020,-3.3125,-13.875,17.375,0
78040,1.9375,-7.75,7.5625,0
78060,17.25,-15.5625,7.3125,0
78100,21.0625,-6.25,2.875,0
78120,20.1875,-10.0625,6.375,0
78140,34.0625,-7,6.9375,0
78160,34.3125,-0.75,6.75,0
78180,25.375,1.625,4.375,0
78200,17.1875,7.9375,3.0625,0
78220,23.875,22.625,-3.75,0
78240,41.5,41,-5.75,0
78260,68.1875,60.4375,-10.5625,0
78280,85.375,85.125,-12,0
78300,96.375,111.25,-15.9375,0
78320,92.875,113.375,-22.75,0
78340,68.8125,108.375,-29.9375,0
78360,40.25,96.3125,-40.75,0
78380,10.6875,94.1875,-60.875,0
78400,36.9375,64.4375,-44.4375,0
78420,82.625,77.8125,-53.875,0
78440,127.688,81.8125,-64.75,0
78460,101.625,75.0625,-55,0
78480,39.625,47.8125,-52.5,0
78500,-18.4375,27.25,-58.1875,0
78520,-8.875,22.125,-54.375,0
78540,37.875,16.5625,-42.875,0
78560,53.6875,5.5625,-41.5625,0
78580,37.5625,-2.1875,-51.0625,0
78600,19.6875,-13.9375,-54.8125,0
78620,8,-24.4375,-53.9375,0
78640,7.9375,-32.375,-56.3125,0
78660,8.4375,-36.75,-57.4375,0
78680,5.875,-36.5625,-51.125,0
78700,8.875,-41.625,-44.875,0
78720,1.5,-51.1875,-36.1875,0
78740,-9.875,-60.9375,-30.5,0
78760,-15,-71.75,-25.3125,0
78780,-18.3125,-88.1875,-23.3125,0
78800,-22.125,-101.688,-15.625,0
78820,-18.5,-110.75,-3.9375,0
78840,-13.5625,-116.688,12.3125,0
78860,-6.625,-119.188,26.9375,0
78880,4,-119.625,39.5625,0
78900,11.375,-119.062,51.9375,0
78920,17.5,-115.188,62.25,0
78940,29.375,-107.375,73.125,0
78960,49.8125,-96,84.1875,0
78980,70.0625,-80.5,97,0
79000,85.75,-65.5,111.875,0
79020,94.1875,-47.9375,118.562,0
79040,104.25,-29.4375,123.688,0
79060,117.75,-9.1875,133.25,0
79080,129.562,15.875,149.875,0
79100,134.625,43.1875,159.812,0
79120,142.312,66.5625,174.062,0
79140,146.125,88.6875,184.812,0
79160,133.562,115.625,188.938,0
79180,97.875,143.875,187.625,0
79200,68.0625,172.562,193.438,0
79220,97.75,204.25,211.188,0
79240,149.625,229.5,237.25,0
79260,179.125,249.812,263.875,0
79280,159.938,249.438,275.375,0
79300,112.312,224.562,254.125,0
79320,48.875,179.625,219.625,0
79340,1.625,140.812,193.562,0
79360,-9.9375,121.125,175,0
79380,5.0625,115.188,162.938,0
79400,24.5,109.312,155.438,0
79420,25.5625,90.6875,146.688,0
79440,7.375,71.0625,128,0
79460,-13.25,56.8125,107.125,0
79480,-14.4375,43.375,95.5625,0
79500,-9.9375,32.875,88.75,0
79520,-0.125,22,76.9375,0
79540,1.1875,10.75,60.75,0
79560,-9.3125,4.0625,45.25,0
79580,-17.75,0.25,32.0625,0
79600,-18.8125,-3.375,23.4375,0
79620,-14.5,-5.0625,19.125,0
79640,-6.9375,-4.5625,16.0625,0
79660,-2.1875,-3.375,12.6875,0
79680,-5.125,-1.5,6.4375,0
79700,-11.25,0.5,0.25,0
79720,-15.875,1,-2.8125,0
79740,-7.75,1.3125,-6.9375,0
79760,0.25,-0.125,-7.4375,0
79780,3.625,-3.1875,-10.3125,0
79800,6.75,-7.0625,-14.75,0
79820,3,-9.75,-19.625,0
79840,1.1875,-12.0625,-24.75,0
79860,4.25,-14.9375,-28.3125,0
79880,4.1875,-19.1875,-32.375,0
79900,3.125,-23.9375,-39.9375,0
79920,3.875,-28.5,-46.75,0
79940,0.5,-33.3125,-51.9375,0
79960,-1.5,-36.1875,-58.6875,0
79980,0.3125,-38.125,-64.25,0
80000,2.5,-39.9375,-68.875,0
80010,3,-42.1875,-73.125,0
80030,1.9375,-44.75,-76.125,0
80050,-2.1875,-48.1875,-78.4375,0
80070,-7.875,-50.6875,-81.25,0
80090,-13.125,-50.8125,-85.875,0
80110,-13.5,-55.375,-93.9375,0
80130,-14.875,-63.8125,-100.938,0
80150,-17.6875,-72,-107.125,0
80170,-22.8125,-76.4375,-114.188,0
80190,-26,-81.25,-121.625,0
80210,-27.8125,-86.3125,-129.688,0
80230,-31,-90.1875,-139.375,0
80250,-34.625,-90.0625,-147.938,0
80270,-30.4375,-87.625,-153.688,0
80290,-22.875,-84.25,-156.688,0
80310,-17.9375,-82.625,-158.125,0
80330,-18.1875,-81.375,-162.75,0
80350,-21.125,-81.625,-169.188,0
80370,-24.75,-83.75,-170.125,0
80390,-22.0625,-85.3125,-170.938,0
80410,-18.1875,-87.8125,-172.688,0
80430,-18.125,-91.25,-172.125,0
80450,-22.5,-90.5,-172.75,0
80470,-24.9375,-88.4375,-172.188,0
80490,-22.625,-87.1875,-168.625,0
80510,-22.125,-83.3125,-167.125,0
80530,-18.25,-76.75,-161.062,0
80550,-9.625,-69.8125,-153.125,0
80570,-2.8125,-65.875,-143.75,0
80590,-4.4375,-64.1875,-135.312,0
80610,-3.8125,-62,-122.125,0
80630,0.1875,-56.5625,-104.5,0
80650,11.6875,-51.125,-80.9375,0
80670,18.3125,-48.875,-56.625,0
80690,6.25,-49.75,-39.375,0
80710,7.25,-44.9375,-25.375,0
80730,-2.25,-41.375,-13.625,0
80750,-4.0625,-30.6875,-7.8125,0
80770,2,-19.0625,-2.0625,0
80790,2.375,-11,3.25,0
80810,2.4375,-1.0625,18,0
80830,-0.5,10.625,29.4375,0
80850,-7.4375,19.5,45.25,0
80870,-9,33.75,65,0
80890,5,46.75,86.625,0
80910,21.8125,62.625,112.812,0
80930,22.125,76.375,134.312,0
80950,15.125,92.9375,159.062,0
80970,16.25,110.625,181.688,0
80990,23.375,123.062,206.75,0
81010,41.9375,132.938,226.625,0
81030,47.5,133.812,238.875,0
81050,50.5,129.188,250.812,0
81070,51.875,126.688,264.688,0
