Timestamp, Angle x, Angle y, Angle z, Marker
40,-0.643819,-0.381576,-1.40821,0
60,-0.702964,-0.419481,-1.28282,0
80,-0.783047,-0.447209,-1.11972,0
100,-0.873452,-0.471818,-0.918412,0
120,-0.958143,-0.514281,-0.775848,0
120,-0.995807,-0.526227,-0.713181,0
160,-1.01885,-0.535395,-0.677964,0
180,-1.02541,-0.522679,-0.696709,0
200,-1.0305,-0.490088,-0.722571,0
220,-1.05464,-0.457978,-0.722659,0
240,-1.07966,-0.43359,-0.697909,0
260,-1.09489,-0.408763,-0.651889,0
280,-1.12488,-0.389498,-0.627024,0
300,-1.13605,-0.382352,-0.636274,0
320,-1.12136,-0.334635,-0.678773,0
340,-1.12195,-0.302187,-0.743768,0
360,-1.08429,-0.297582,-0.822469,0
380,-1.05431,-0.283904,-0.900643,0
400,-1.02342,-0.252724,-0.986064,0
420,-0.99064,-0.210714,-1.07234,0
440,-0.946976,-0.16931,-1.15902,0
460,-0.881774,-0.115845,-1.21851,0
480,-0.824753,-0.0673689,-1.26216,0
500,-0.77703,-0.0353339,-1.29164,0
520,-0.735772,-0.0179741,-1.29757,0
540,-0.694099,-0.015319,-1.29544,0
560,-0.65481,-0.00432105,-1.30426,0
580,-0.630268,0.0163966,-1.31329,0
600,-0.604663,0.0376672,-1.3259,0
620,-0.577655,0.0596547,-1.34204,0
640,-0.542945,0.075932,-1.35192,0
660,-0.488718,0.0831707,-1.35529,0
680,-0.431277,0.078089,-1.35705,0
700,-0.373729,0.0741234,-1.36762,0
720,-0.306989,0.0821275,-1.37356,0
740,-0.241835,0.0956373,-1.38172,0
760,-0.167742,0.104971,-1.37596,0
780,-0.0948764,0.110718,-1.36639,0
800,-0.0272252,0.0896862,-1.34713,0
820,0.0431515,0.0380125,-1.31684,0
840,0.0999555,-0.0272001,-1.29063,0
860,0.152959,-0.0886322,-1.27531,0
880,0.190329,-0.132437,-1.25931,0
900,0.201328,-0.140402,-1.24044,0
910,0.202254,-0.122869,-1.21984,0
930,0.23755,-0.122647,-1.20557,0
950,0.257834,-0.141257,-1.19498,0
970,0.260157,-0.161999,-1.19213,0
990,0.266654,-0.17009,-1.19849,0
1010,0.272173,-0.171888,-1.21083,0
1030,0.278881,-0.17135,-1.22435,0
1050,0.283458,-0.174946,-1.23283,0
1070,0.274973,-0.170536,-1.2382,0
1090,0.257369,-0.164702,-1.23726,0
1110,0.241998,-0.165056,-1.232,0
1130,0.234397,-0.169112,-1.23294,0
1150,0.232573,-0.179905,-1.24042,0
1170,0.233968,-0.193329,-1.24884,0
1190,0.233412,-0.205175,-1.25399,0
1210,0.227344,-0.217758,-1.25253,0
1230,0.222764,-0.22971,-1.24642,0
1250,0.221311,-0.243871,-1.2436,0
1270,0.215492,-0.26031,-1.24327,0
1290,0.216478,-0.276706,-1.24318,0
1310,0.219282,-0.289353,-1.2472,0
1330,0.220314,-0.297261,-1.25639,0
1350,0.229005,-0.296103,-1.2636,0
1370,0.236274,-0.289888,-1.26633,0
1390,0.239878,-0.281391,-1.26375,0
1410,0.247467,-0.27453,-1.2612,0
1430,0.255148,-0.271158,-1.26189,0
1450,0.261575,-0.272613,-1.26596,0
1460,0.268707,-0.270951,-1.26861,0
1480,0.271101,-0.267195,-1.26798,0
1500,0.271188,-0.265435,-1.26744,0
1530,0.275351,-0.262342,-1.26906,0
1550,0.279574,-0.260452,-1.27432,0
1570,0.280629,-0.261857,-1.27826,0
1590,0.282664,-0.262817,-1.27926,0
1610,0.281367,-0.26309,-1.28071,0
1620,0.281205,-0.264146,-1.28123,0
1650,0.279291,-0.267997,-1.27894,0
1670,0.278544,-0.274527,-1.27894,0
1680,0.279405,-0.282166,-1.28084,0
1700,0.283499,-0.291534,-1.28369,0
1720,0.291566,-0.298627,-1.28997,0
1740,0.29924,-0.303715,-1.29575,0
1740,0.306566,-0.305087,-1.29958,0
1760,0.309095,-0.307262,-1.30223,0
1780,0.312773,-0.309657,-1.30557,0
1780,0.316279,-0.312084,-1.3109,0
1800,0.318413,-0.315889,-1.31689,0
1820,0.321159,-0.320733,-1.32523,0
1830,0.318811,-0.328149,-1.33306,0
1840,0.316665,-0.33829,-1.33926,0
1860,0.311769,-0.349773,-1.34194,0
1880,0.307633,-0.36032,-1.34473,0
1880,0.303288,-0.367533,-1.34759,0
1900,0.298936,-0.37194,-1.34946,0
1920,0.295351,-0.374949,-1.35195,0
1940,0.29408,-0.378097,-1.35485,0
1940,0.295685,-0.380481,-1.35841,0
1960,0.298361,-0.381834,-1.36295,0
1980,0.301765,-0.384973,-1.36923,0
2000,0.304252,-0.388181,-1.3748,0
2050,0.306097,-0.392096,-1.37994,0
2100,0.305201,-0.396906,-1.38497,0
2160,0.305223,-0.402096,-1.39621,0
2190,0.307717,-0.407088,-1.41051,0
2210,0.309842,-0.41344,-1.42412,0
2230,0.313743,-0.418697,-1.43563,0
2250,0.319433,-0.427268,-1.448,0
2270,0.323356,-0.438418,-1.46015,0
2290,0.329338,-0.447765,-1.46976,0
2310,0.332745,-0.456467,-1.47898,0
2330,0.335372,-0.458925,-1.48669,0
2350,0.336312,-0.456033,-1.49399,0
2370,0.336487,-0.445116,-1.50257,0
2390,0.333324,-0.43267,-1.5098,0
2410,0.328393,-0.419467,-1.51404,0
2430,0.324539,-0.40792,-1.51789,0
2450,0.319312,-0.40258,-1.52232,0
2470,0.319563,-0.398457,-1.52962,0
2490,0.319376,-0.394846,-1.5402,0
2510,0.316902,-0.387537,-1.54828,0
2530,0.310832,-0.374103,-1.55574,0
2550,0.303309,-0.359804,-1.55904,0
2570,0.291607,-0.344791,-1.56034,0
2590,0.280989,-0.330426,-1.56096,0
2610,0.274364,-0.323726,-1.56441,0
2630,0.262561,-0.320774,-1.57253,0
2650,0.258935,-0.321415,-1.57998,0
2670,0.255388,-0.317446,-1.58705,0
2690,0.255071,-0.307757,-1.59747,0
2710,0.250806,-0.294184,-1.60601,0
2730,0.247455,-0.279948,-1.61376,0
2750,0.244275,-0.277452,-1.62232,0
2770,0.240798,-0.281287,-1.6281,0
2790,0.237882,-0.2889,-1.63151,0
2810,0.234374,-0.293586,-1.63591,0
2830,0.230344,-0.294047,-1.64158,0
2850,0.22896,-0.293223,-1.6478,0
2870,0.226719,-0.294061,-1.65354,0
2890,0.226186,-0.294722,-1.65898,0
2910,0.225179,-0.293337,-1.66558,0
2930,0.221753,-0.29402,-1.67102,0
2950,0.224161,-0.297059,-1.67559,0
2970,0.222288,-0.297033,-1.68165,0
2990,0.219177,-0.295352,-1.68731,0
3010,0.218361,-0.29465,-1.69204,0
3030,0.215152,-0.294533,-1.69631,0
3050,0.212859,-0.295869,-1.70011,0
3070,0.209851,-0.296278,-1.70369,0
3090,0.206926,-0.296178,-1.70641,0
3110,0.204356,-0.295289,-1.70901,0
3130,0.201225,-0.294215,-1.71089,0
3150,0.199761,-0.294987,-1.71126,0
3170,0.198969,-0.29629,-1.71161,0
3190,0.19871,-0.298079,-1.7107,0
3210,0.199022,-0.297898,-1.71055,0
3230,0.197896,-0.296523,-1.71082,0
3250,0.196381,-0.294749,-1.70996,0
3270,0.194682,-0.294104,-1.70842,0
3290,0.195568,-0.296182,-1.70623,0
3310,0.197164,-0.300474,-1.70352,0
3330,0.197528,-0.306231,-1.69905,0
3350,0.199876,-0.311796,-1.69455,0
3370,0.201401,-0.317458,-1.69155,0
3390,0.201489,-0.320093,-1.68771,0
3410,0.20016,-0.321303,-1.684,0
3430,0.19838,-0.322332,-1.67923,0
3450,0.198053,-0.32547,-1.67181,0
3470,0.199791,-0.330318,-1.6647,0
3490,0.201755,-0.336136,-1.6571,0
3510,0.20245,-0.339425,-1.6474,0
3530,0.200104,-0.342264,-1.63571,0
3550,0.1997,-0.347582,-1.62159,0
3570,0.198386,-0.357211,-1.6029,0
3580,0.197393,-0.366686,-1.58165,0
3600,0.20096,-0.377689,-1.56565,0
3620,0.205287,-0.387644,-1.55442,0
3640,0.211655,-0.391833,-1.55322,0
3660,0.218066,-0.382503,-1.56184,0
3680,0.220206,-0.351715,-1.57066,0
3700,0.215156,-0.300508,-1.59089,0
3720,0.202764,-0.239565,-1.60772,0
3740,0.183997,-0.175549,-1.62583,0
3760,0.169249,-0.126567,-1.63062,0
3780,0.154083,-0.100084,-1.6235,0
3800,0.144213,-0.0941978,-1.61673,0
3820,0.141227,-0.0948865,-1.61381,0
3840,0.141222,-0.0839909,-1.60988,0
3860,0.134754,-0.0724009,-1.60597,0
3880,0.129896,-0.0655326,-1.59688,0
3900,0.126136,-0.0642803,-1.58575,0
3920,0.122123,-0.0683336,-1.5736,0
3940,0.120192,-0.0757073,-1.56309,0
3960,0.118055,-0.0779627,-1.55709,0
3980,0.111984,-0.0796727,-1.55479,0
4000,0.107513,-0.0798673,-1.54892,0
4020,0.103535,-0.0845136,-1.54165,0
4040,0.101844,-0.0898345,-1.53027,0
4060,0.101126,-0.0934826,-1.51975,0
4080,0.0995417,-0.096552,-1.50779,0
4100,0.0999002,-0.0974481,-1.49756,0
4120,0.100774,-0.0995151,-1.48836,0
4140,0.0987539,-0.103727,-1.48062,0
4160,0.0948218,-0.113764,-1.47197,0
4180,0.0865975,-0.123365,-1.45927,0
4200,0.076209,-0.13909,-1.44621,0
4220,0.06139,-0.161605,-1.43277,0
4240,0.039467,-0.187846,-1.4196,0
4260,0.014134,-0.217471,-1.39813,0
4280,-0.0195921,-0.260248,-1.37626,0
4300,-0.0494649,-0.303584,-1.34598,0
4320,-0.0832009,-0.333715,-1.32258,0
4340,-0.11399,-0.346974,-1.30284,0
4360,-0.0929914,-0.354365,-1.3092,0
4380,-0.137137,-0.376131,-1.27378,0
4400,-0.17961,-0.400028,-1.26016,0
4420,-0.187377,-0.418234,-1.25311,0
4440,-0.210831,-0.424053,-1.2592,0
4460,-0.222606,-0.425909,-1.29092,0
4480,-0.239907,-0.414661,-1.31766,0
4500,-0.283726,-0.392705,-1.35569,0
4520,-0.312902,-0.378875,-1.37614,0
4540,-0.371161,-0.391825,-1.37211,0
4560,-0.416166,-0.402462,-1.3679,0
4580,-0.44132,-0.407454,-1.37755,0
4600,-0.458129,-0.405403,-1.39103,0
4620,-0.47957,-0.402388,-1.40056,0
4640,-0.504933,-0.399644,-1.4042,0
4660,-0.530542,-0.401469,-1.40173,0
4680,-0.547414,-0.405412,-1.39755,0
4700,-0.557829,-0.407912,-1.39351,0
4720,-0.566964,-0.409737,-1.39201,0
4740,-0.574616,-0.410822,-1.38735,0
4760,-0.581036,-0.409439,-1.38514,0
4780,-0.587935,-0.407191,-1.3829,0
4800,-0.591882,-0.405148,-1.38301,0
4820,-0.592565,-0.398963,-1.38876,0
4840,-0.593379,-0.393085,-1.39483,0
4860,-0.598333,-0.392001,-1.39638,0
4880,-0.605921,-0.398483,-1.39032,0
4900,-0.609866,-0.405743,-1.3812,0
4920,-0.602979,-0.406972,-1.37386,0
4940,-0.570911,-0.410544,-1.36123,0
4960,-0.536943,-0.418704,-1.33679,0
4980,-0.495053,-0.435857,-1.2982,0
5000,-0.473579,-0.46533,-1.2392,0
5020,-0.462305,-0.492801,-1.12981,0
5040,-0.485427,-0.499884,-0.9755,0
5060,-0.527885,-0.507485,-0.761678,0
5080,-0.626543,-0.577784,-0.524119,0
5100,-0.693684,-0.615589,-0.4067,0
5120,-0.703845,-0.64183,-0.368935,0
5140,-0.681831,-0.648004,-0.397419,0
5160,-0.656564,-0.631885,-0.429218,0
5180,-0.650725,-0.59514,-0.453355,0
5200,-0.662212,-0.561849,-0.463302,0
5220,-0.686638,-0.523779,-0.461879,0
5240,-0.720348,-0.509006,-0.448787,0
5260,-0.763817,-0.510448,-0.421616,0
5280,-0.816918,-0.533644,-0.395496,0
5300,-0.879449,-0.568116,-0.37556,0
5320,-0.951251,-0.594297,-0.374707,0
5340,-1.08354,-0.584667,-0.347044,0
5360,-1.14611,-0.580892,-0.426708,0
5380,-1.13768,-0.569025,-0.55649,0
5400,-1.18293,-0.567225,-0.621238,0
5420,-1.20776,-0.552072,-0.652061,0
5440,-1.17821,-0.535918,-0.67364,0
5460,-1.17142,-0.524447,-0.69691,0
5480,-1.14229,-0.51454,-0.752195,0
5500,-1.08259,-0.494435,-0.827785,0
5520,-1.03213,-0.467565,-0.873186,0
5540,-0.958564,-0.444073,-0.915243,0
5560,-0.874925,-0.413627,-0.995278,0
5580,-0.796586,-0.376748,-1.06919,0
5600,-0.716927,-0.341855,-1.11847,0
5620,-0.644373,-0.310389,-1.1716,0
5640,-0.573316,-0.285558,-1.24068,0
5660,-0.503875,-0.255964,-1.31959,0
5680,-0.436217,-0.22891,-1.40589,0
5700,-0.362511,-0.198961,-1.51037,0
5720,-0.277124,-0.137387,-1.6021,0
5740,-0.211818,-0.103955,-1.67103,0
5760,-0.148557,-0.0849573,-1.73842,0
5780,-0.084378,-0.0638232,-1.80397,0
5800,-0.00814184,-0.0158309,-1.87485,0
5820,0.0932609,0.0467699,-1.94139,0
5840,0.17906,0.0820722,-2.02086,0
5860,0.279179,0.137865,-2.04659,0
5880,0.376297,0.205434,-2.03954,0
5900,0.451525,0.242518,-2.03542,0
5920,0.530507,0.274432,-2.00886,0
5940,0.707909,0.248338,-1.86275,0
5960,0.777771,0.285773,-1.7309,0
5980,0.844978,0.273965,-1.62852,0
6000,0.908958,0.273809,-1.545,0
6020,0.962174,0.258647,-1.4603,0
6040,0.992984,0.226506,-1.3945,0
6060,0.992038,0.202147,-1.38035,0
6080,0.935804,0.209321,-1.40334,0
6100,0.848195,0.209357,-1.40479,0
6120,0.734474,0.206545,-1.38009,0
6140,0.598508,0.181844,-1.34006,0
6160,0.428097,0.147381,-1.31089,0
6180,0.267903,0.114757,-1.30542,0
6200,0.177995,0.0681176,-1.27146,0
6220,0.0811772,0.0470625,-1.23295,0
6230,0.0306131,0.0437045,-1.19935,0
6250,0.00640306,0.0339343,-1.16787,0
6270,0.0519513,0.00917887,-1.1133,0
6290,0.111892,-0.0231439,-1.03009,0
6310,0.194043,-0.0695475,-0.909388,0
6330,0.248587,-0.146451,-0.774034,0
6350,0.265619,-0.248579,-0.642503,0
6370,0.30695,-0.314319,-0.5408,0
6390,0.356375,-0.34294,-0.498094,0
6410,0.35369,-0.342322,-0.501373,0
6430,0.283901,-0.290958,-0.483403,0
6450,0.202424,-0.195875,-0.439971,0
6470,0.178507,-0.121716,-0.383239,0
6490,0.168468,-0.0861779,-0.349444,0
6510,0.138421,-0.0882934,-0.339094,0
6530,0.0984601,-0.118587,-0.327508,0
6550,0.041562,-0.0958053,-0.261243,0
6570,0.0658472,-0.119539,-0.186381,0
6590,0.120631,-0.137121,-0.236906,0
6610,0.133228,-0.0981924,-0.152565,0
6630,0.196629,-0.0893687,-0.160721,0
6650,0.225137,-0.121404,-0.174521,0
6670,0.195908,-0.125819,-0.184402,0
6690,0.176105,-0.162388,-0.202381,0
6710,0.153349,-0.185237,-0.223923,0
6730,0.110649,-0.231914,-0.20248,0
6750,0.055838,-0.276925,-0.129305,0
6770,0.0339532,-0.284523,-0.105047,0
6790,0.0396528,-0.3704,-0.0716599,0
6810,0.0177866,-0.463103,-0.0403164,0
6830,0.0116048,-0.567268,-0.0393678,0
6850,-0.00101642,-0.648912,-0.0421603,0
6870,-0.00199139,-0.675128,-0.0127558,0
6890,0.0333887,-0.668622,-0.00423358,0
6910,0.0499383,-0.667127,0.0143513,0
6930,0.0500418,-0.690538,0.0575378,0
6950,0.0272235,-0.694532,0.096006,0
6970,0.00518276,-0.674375,0.117382,0
6990,0.000159593,-0.659387,0.13009,0
7010,-0.0303168,-0.662476,0.165371,0
7030,-0.0737799,-0.626537,0.203643,0
7050,-0.065782,-0.595537,0.221866,0
7070,-0.0316628,-0.584451,0.212714,0
7090,-0.00345037,-0.55961,0.195234,0
7110,0.0192244,-0.530969,0.178715,0
7130,0.030675,-0.506103,0.177058,0
7150,0.0433283,-0.49236,0.201513,0
7170,0.0506256,-0.47616,0.222841,0
7190,0.0466666,-0.465103,0.252337,0
7210,0.0409755,-0.47932,0.298109,0
7230,0.0400683,-0.499531,0.343789,0
7250,0.0273705,-0.528794,0.416534,0
7270,-0.00622363,-0.540716,0.496191,0
7290,-0.0212269,-0.516795,0.565703,0
7310,-0.00254861,-0.469063,0.611604,0
7330,0.0181867,-0.424871,0.659794,0
7350,0.0375688,-0.383206,0.69823,0
7370,0.0630266,-0.350078,0.729326,0
7390,0.0861317,-0.333164,0.746079,0
7410,0.116357,-0.312078,0.755062,0
7430,0.153521,-0.278112,0.753213,0
7450,0.202107,-0.238601,0.743848,0
7470,0.247736,-0.192886,0.735077,0
7490,0.3023,-0.162829,0.717466,0
7510,0.345915,-0.154604,0.688123,0
7530,0.372538,-0.151395,0.64921,0
7550,0.379784,-0.142436,0.619536,0
7570,0.392469,-0.11681,0.594372,0
7580,0.400043,-0.091973,0.563414,0
7580,0.410826,-0.0821963,0.531429,0
7620,0.41921,-0.0847436,0.502292,0
7640,0.428316,-0.0986511,0.478845,0
7660,0.429073,-0.114292,0.476801,0
7680,0.432755,-0.125222,0.493703,0
7710,0.440809,-0.125587,0.523969,0
7730,0.430115,-0.121537,0.552071,0
7750,0.42742,-0.111905,0.557023,0
7770,0.435992,-0.103115,0.559535,0
7790,0.421815,-0.09017,0.572572,0
7810,0.401674,-0.085139,0.561873,0
7830,0.426641,-0.100694,0.520632,0
7850,0.425965,-0.101217,0.489963,0
7870,0.412026,-0.119881,0.466152,0
7890,0.419149,-0.102058,0.459854,0
7910,0.405483,-0.0954114,0.467606,0
7930,0.403851,-0.100246,0.470516,0
7950,0.415725,-0.114071,0.472656,0
7970,0.457488,-0.11623,0.482935,0
7990,0.460783,-0.111838,0.505467,0
8010,0.460742,-0.0974525,0.528462,0
8030,0.476776,-0.0929876,0.541125,0
8050,0.502659,-0.0901694,0.558715,0
8070,0.52852,-0.0869943,0.571317,0
8090,0.539797,-0.0857355,0.589715,0
8110,0.546391,-0.0810303,0.60497,0
8130,0.548179,-0.0831527,0.611162,0
8150,0.513709,-0.105183,0.653818,0
8170,0.497338,-0.117039,0.700436,0
8190,0.501148,-0.114708,0.741705,0
8210,0.517258,-0.104632,0.768546,0
8230,0.528612,-0.11359,0.776984,0
8250,0.546923,-0.121246,0.778539,0
8270,0.567524,-0.121601,0.773508,0
8290,0.570085,-0.134031,0.790329,0
8310,0.582179,-0.123609,0.783416,0
8330,0.589201,-0.137947,0.770839,0
8350,0.58273,-0.156323,0.750179,0
8370,0.584172,-0.181891,0.739702,0
8390,0.568747,-0.19621,0.75103,0
8410,0.565171,-0.195308,0.764975,0
8430,0.570905,-0.206276,0.780455,0
8450,0.574455,-0.20868,0.788314,0
8470,0.590508,-0.209528,0.784901,0
8490,0.609277,-0.21247,0.78029,0
8510,0.621823,-0.208683,0.782395,0
8530,0.631887,-0.209463,0.793086,0
8550,0.652349,-0.201522,0.802905,0
8570,0.676013,-0.194345,0.812693,0
8590,0.689849,-0.179371,0.826377,0
8610,0.69688,-0.158706,0.846282,0
8630,0.712089,-0.13092,0.863961,0
8650,0.737379,-0.110636,0.870913,0
8670,0.745515,-0.0999729,0.874133,0
8690,0.736411,-0.103224,0.87495,0
8700,0.721607,-0.11507,0.879932,0
8720,0.706995,-0.121385,0.884308,0
8720,0.704867,-0.120148,0.88493,0
8740,0.710681,-0.117704,0.884102,0
8760,0.712892,-0.117226,0.886008,0
8780,0.714553,-0.117567,0.881832,0
8840,0.708506,-0.117253,0.874845,0
8840,0.699781,-0.11846,0.869362,0
8860,0.691475,-0.119612,0.869525,0
8880,0.676415,-0.137678,0.880999,0
8900,0.663865,-0.163257,0.896489,0
8920,0.64597,-0.171763,0.927896,0
8940,0.648425,-0.161795,0.947541,0
8960,0.68969,-0.150937,0.914368,0
8980,0.687496,-0.189072,0.896759,0
9000,0.667781,-0.190704,0.906178,0
9020,0.668563,-0.227444,0.886762,0
9040,0.673843,-0.230651,0.879627,0
9060,0.687458,-0.242626,0.871317,0
9080,0.689885,-0.254301,0.869324,0
9100,0.696482,-0.263605,0.86718,0
9120,0.716244,-0.278868,0.858176,0
9140,0.744301,-0.292019,0.857482,0
9160,0.780692,-0.304537,0.86577,0
9180,0.824707,-0.313586,0.871832,0
9200,0.854066,-0.315459,0.877878,0
9220,0.876116,-0.316998,0.871997,0
9240,0.894451,-0.317579,0.868544,0
9260,0.920771,-0.318513,0.867592,0
9280,0.949081,-0.321736,0.870674,0
9300,0.968658,-0.320661,0.873919,0
9320,0.994261,-0.314542,0.866968,0
9340,1.00707,-0.312766,0.860228,0
9360,1.00741,-0.307862,0.857693,0
9380,1.01709,-0.301141,0.854471,0
9400,1.03157,-0.298267,0.849293,0
9420,1.04239,-0.294247,0.84286,0
9440,1.05369,-0.287649,0.833572,0
9460,1.0513,-0.285201,0.826045,0
9480,1.04571,-0.288332,0.81649,0
9500,1.04631,-0.29005,0.803735,0
9520,1.04979,-0.286844,0.792197,0
9540,1.055,-0.280476,0.776196,0
9560,1.05793,-0.274923,0.75992,0
9580,1.05736,-0.270368,0.745104,0
9600,1.0535,-0.267411,0.731051,0
9620,1.04887,-0.266982,0.718002,0
9640,1.0477,-0.267969,0.705498,0
9660,1.04409,-0.265785,0.70065,0
9680,1.03838,-0.261131,0.703325,0
9700,1.03328,-0.261516,0.706913,0
9720,1.03139,-0.269012,0.711912,0
9740,1.03099,-0.277742,0.721114,0
9760,1.03602,-0.280883,0.733632,0
9780,1.04417,-0.283361,0.74492,0
9800,1.04763,-0.289994,0.750981,0
9820,1.05011,-0.296261,0.75733,0
9840,1.05386,-0.298165,0.763784,0
9860,1.05603,-0.297016,0.771308,0
9880,1.05548,-0.294783,0.783051,0
9900,1.05352,-0.294194,0.789087,0
9920,1.05183,-0.299032,0.793861,0
9940,1.05529,-0.307774,0.802555,0
9960,1.06081,-0.313899,0.811291,0
9980,1.06646,-0.317006,0.821889,0
10000,1.06774,-0.319455,0.831811,0
10020,1.07082,-0.321072,0.840126,0
10040,1.07346,-0.323617,0.848596,0
10060,1.0757,-0.330039,0.850124,0
10080,1.08036,-0.333987,0.851308,0
10100,1.08636,-0.335393,0.850181,0
10120,1.09562,-0.335463,0.848319,0
10140,1.09914,-0.337903,0.850355,0
10160,1.09586,-0.343874,0.854028,0
10180,1.08674,-0.356135,0.861199,0
10200,1.07983,-0.366186,0.868109,0
10220,1.07685,-0.371069,0.87514,0
10240,1.07271,-0.37157,0.886445,0
10260,1.06886,-0.368372,0.899578,0
10280,1.06892,-0.365008,0.916999,0
10300,1.07123,-0.368753,0.923952,0
10320,1.07157,-0.370455,0.923954,0
10340,1.0727,-0.362486,0.928978,0
10360,1.07745,-0.359034,0.936373,0
10380,1.07583,-0.364455,0.945484,0
10380,1.07705,-0.371948,0.954569,0
10400,1.07914,-0.378035,0.960264,0
10420,1.08337,-0.380658,0.962569,0
10440,1.0926,-0.383062,0.959688,0
10460,1.09974,-0.385258,0.953134,0
10460,1.10402,-0.386218,0.944746,0
10480,1.10885,-0.384406,0.93708,0
10500,1.11059,-0.380933,0.928444,0
10500,1.11186,-0.377401,0.917539,0
10520,1.11386,-0.376049,0.90523,0
10540,1.11774,-0.371713,0.894855,0
10560,1.11832,-0.369258,0.887531,0
10560,1.11729,-0.366601,0.880196,0
10580,1.11387,-0.364254,0.870908,0
10600,1.10574,-0.362909,0.857042,0
10620,1.09817,-0.364652,0.839643,0
10620,1.08798,-0.368731,0.825288,0
10640,1.08079,-0.372174,0.812035,0
10660,1.08177,-0.37498,0.801463,0
10680,1.07832,-0.377144,0.792449,0
10680,1.07131,-0.378714,0.785099,0
10700,1.06597,-0.379728,0.780172,0
10720,1.06147,-0.379598,0.777873,0
10730,1.0558,-0.378461,0.778183,0
10740,1.05285,-0.375633,0.776281,0
10760,1.05058,-0.372534,0.77295,0
10780,1.046,-0.371006,0.772231,0
10780,1.04261,-0.372909,0.774633,0
10800,1.03737,-0.37412,0.778127,0
10820,1.04016,-0.375511,0.774766,0
10840,1.0434,-0.378421,0.769516,0
10860,1.04488,-0.38255,0.76549,0
10860,1.04778,-0.384495,0.763924,0
10880,1.04727,-0.384912,0.765979,0
10900,1.04499,-0.386568,0.770843,0
10920,1.04543,-0.388023,0.776611,0
10920,1.04867,-0.390736,0.780713,0
10940,1.0552,-0.394102,0.785787,0
10980,1.04925,-0.400265,0.800005,0
11020,1.05432,-0.401382,0.816683,0
11080,1.05095,-0.41247,0.833359,0
11140,1.05117,-0.425872,0.845733,0
11180,1.05528,-0.437454,0.857178,0
11240,1.05718,-0.446354,0.870209,0
11280,1.06292,-0.452704,0.876788,0
11300,1.06792,-0.463511,0.882633,0
11320,1.06687,-0.476573,0.885931,0
11340,1.06246,-0.489907,0.889443,0
11360,1.05764,-0.494452,0.886842,0
11380,1.06113,-0.492266,0.863966,0
11400,1.06039,-0.495424,0.836262,0
11420,1.04817,-0.502766,0.822981,0
11440,1.032,-0.507781,0.827955,0
11460,1.02281,-0.50693,0.827811,0
11470,1.01274,-0.502616,0.815548,0
11490,0.99785,-0.507592,0.805478,0
11510,0.982976,-0.517968,0.806994,0
11530,0.978786,-0.52301,0.807927,0
11550,0.975735,-0.521498,0.804754,0
11570,0.964945,-0.517715,0.802451,0
11590,0.955773,-0.519154,0.799287,0
11610,0.948545,-0.524862,0.78955,0
11630,0.943295,-0.529609,0.78573,0
11650,0.945431,-0.526677,0.78844,0
11670,0.944541,-0.529197,0.786163,0
11690,0.935594,-0.528802,0.789965,0
11710,0.927884,-0.527294,0.795292,0
11730,0.918024,-0.52662,0.802854,0
11750,0.919479,-0.52861,0.796468,0
11770,0.929098,-0.531546,0.787303,0
11790,0.932198,-0.534383,0.777994,0
11810,0.940204,-0.534108,0.762786,0
11830,0.947436,-0.532885,0.745729,0
11850,0.954432,-0.531934,0.727887,0
11870,0.962792,-0.529711,0.706614,0
11890,0.977817,-0.529433,0.687199,0
11910,0.994673,-0.52987,0.67321,0
11930,1.018,-0.52725,0.656672,0
11950,1.03787,-0.526023,0.640648,0
11970,1.05534,-0.520414,0.629472,0
11990,1.07182,-0.515463,0.614408,0
12010,1.07884,-0.514425,0.603355,0
12030,1.08932,-0.514972,0.591184,0
12050,1.10154,-0.515019,0.579308,0
12070,1.10642,-0.512986,0.568987,0
12090,1.10939,-0.515485,0.560796,0
12110,1.11291,-0.520944,0.555394,0
12130,1.11661,-0.522795,0.558918,0
12150,1.11296,-0.519584,0.57329,0
12170,1.10633,-0.511973,0.583533,0
12190,1.09984,-0.509458,0.588075,0
12210,1.09515,-0.510552,0.594003,0
12230,1.09133,-0.511642,0.60116,0
12250,1.09724,-0.513449,0.601011,0
12270,1.1067,-0.520421,0.591769,0
12290,1.11277,-0.535568,0.578744,0
12310,1.12051,-0.551759,0.568998,0
12330,1.12894,-0.562645,0.562007,0
12350,1.13127,-0.577196,0.565205,0
12370,1.12722,-0.588497,0.562629,0
12390,1.13622,-0.589206,0.545056,0
12410,1.13318,-0.593605,0.555268,0
12430,1.11178,-0.60199,0.585796,0
12450,1.09292,-0.609508,0.600501,0
12470,1.08263,-0.622487,0.600418,0
12490,1.06202,-0.62629,0.622994,0
12510,1.04089,-0.637148,0.657833,0
12530,1.01251,-0.635192,0.6996,0
12550,0.988748,-0.634147,0.722148,0
12570,0.975032,-0.639465,0.735693,0
12590,0.961954,-0.648295,0.750152,0
12610,0.959949,-0.652213,0.749456,0
12630,0.966153,-0.653132,0.748215,0
12650,0.967218,-0.65249,0.746483,0
12670,0.969872,-0.64286,0.742348,0
12690,0.968736,-0.636455,0.737835,0
12710,0.973297,-0.635741,0.731376,0
12730,0.976853,-0.633423,0.725095,0
12750,0.979318,-0.63135,0.729801,0
12770,0.993385,-0.630339,0.727402,0
12790,1.00866,-0.625478,0.720982,0
12810,1.0233,-0.618907,0.714426,0
12830,1.0317,-0.615899,0.709848,0
12850,1.03733,-0.611827,0.707454,0
12870,1.04628,-0.605261,0.703579,0
12890,1.05174,-0.599537,0.701163,0
12910,1.05989,-0.598949,0.691854,0
12930,1.06221,-0.598152,0.684113,0
12950,1.06896,-0.595416,0.675901,0
12970,1.06768,-0.591424,0.675736,0
12990,1.06876,-0.585876,0.670311,0
13010,1.07038,-0.582681,0.665148,0
13030,1.0721,-0.579097,0.662669,0
13050,1.07017,-0.575612,0.662795,0
13070,1.06384,-0.574923,0.666332,0
13090,1.05615,-0.575115,0.669444,0
13110,1.05117,-0.575189,0.669223,0
13130,1.05097,-0.575857,0.673388,0
13150,1.05096,-0.578456,0.682256,0
13170,1.05309,-0.581176,0.685462,0
13190,1.05339,-0.587308,0.680851,0
13210,1.05072,-0.598077,0.670214,0
13230,1.04858,-0.612204,0.668175,0
13250,1.05279,-0.621172,0.67692,0
13270,1.05646,-0.623324,0.689617,0
13290,1.05626,-0.621607,0.705393,0
13310,1.03991,-0.617025,0.732548,0
13330,1.00985,-0.6058,0.783709,0
13350,0.960698,-0.58342,0.854267,0
13370,0.940112,-0.588808,0.856788,0
13390,0.945743,-0.59011,0.862136,0
13410,0.977325,-0.582502,0.841261,0
13430,1.01224,-0.566867,0.792565,0
13450,1.02274,-0.560558,0.765344,0
13470,1.01488,-0.577728,0.733272,0
13490,0.997734,-0.600037,0.685455,0
13510,0.987743,-0.600059,0.668332,0
13530,0.954511,-0.59197,0.689513,0
13550,0.893152,-0.597645,0.714405,0
13570,0.825989,-0.592938,0.731121,0
13590,0.73435,-0.575593,0.757317,0
13610,0.626691,-0.560236,0.778412,0
13630,0.495805,-0.541915,0.8081,0
13650,0.350474,-0.521248,0.849223,0
13670,0.196055,-0.484533,0.88785,0
13690,0.0547486,-0.440807,0.920145,0
13710,-0.0852255,-0.398351,0.941282,0
13730,-0.221107,-0.377673,0.925557,0
13750,-0.35235,-0.379655,0.897603,0
13770,-0.446276,-0.353239,0.88271,0
13790,-0.504727,-0.340337,0.92618,0
13810,-0.559256,-0.337561,0.955631,0
13830,-0.55116,-0.338842,0.958248,0
13850,-0.509995,-0.356673,0.953963,0
13870,-0.483524,-0.405413,0.934422,0
13890,-0.462639,-0.4567,0.913671,0
13910,-0.447801,-0.499875,0.90789,0
13930,-0.46346,-0.528422,0.918439,0
13950,-0.484279,-0.526009,0.919377,0
13970,-0.499209,-0.502386,0.900548,0
13990,-0.523644,-0.490341,0.87541,0
14010,-0.520964,-0.501014,0.825634,0
14030,-0.491471,-0.549536,0.759697,0
14050,-0.437473,-0.611345,0.673383,0
14070,-0.346893,-0.679001,0.532842,0
14090,-0.202176,-0.743043,0.350881,0
14110,-0.0350386,-0.792651,0.180414,0
14120,0.120909,-0.812577,0.0327151,0
14140,0.234685,-0.796254,-0.0785749,0
14160,0.328656,-0.747455,-0.172069,0
14180,0.39513,-0.750524,-0.239592,0
14200,0.459649,-0.730736,-0.292232,0
14220,0.486689,-0.655125,-0.312203,0
14240,0.470444,-0.629077,-0.326399,0
14260,0.45655,-0.645634,-0.326349,0
14280,0.459093,-0.663798,-0.324662,0
14300,0.476019,-0.680123,-0.338859,0
14320,0.494692,-0.691148,-0.355599,0
14340,0.49953,-0.708455,-0.35937,0
14360,0.499078,-0.725074,-0.365141,0
14380,0.487129,-0.734215,-0.376752,0
14400,0.471722,-0.739261,-0.386591,0
14420,0.449678,-0.75049,-0.394048,0
14440,0.43076,-0.763579,-0.395657,0
14460,0.413166,-0.771608,-0.395926,0
14480,0.399831,-0.772696,-0.396833,0
14500,0.393892,-0.776084,-0.395296,0
14520,0.390938,-0.782465,-0.398323,0
14540,0.393414,-0.788036,-0.407328,0
14560,0.398697,-0.787551,-0.411865,0
14580,0.398861,-0.783178,-0.412601,0
14600,0.389637,-0.780997,-0.407872,0
14620,0.383633,-0.782393,-0.406258,0
14640,0.381568,-0.787051,-0.409588,0
14660,0.383615,-0.796928,-0.414188,0
14680,0.383081,-0.806248,-0.415457,0
14700,0.387826,-0.812578,-0.419973,0
14720,0.392855,-0.813644,-0.425463,0
14740,0.393221,-0.816086,-0.427019,0
14760,0.385787,-0.823252,-0.422041,0
14780,0.377751,-0.828906,-0.41276,0
14800,0.374707,-0.828827,-0.409255,0
14820,0.375004,-0.828472,-0.410664,0
14840,0.375348,-0.832729,-0.40996,0
14860,0.375212,-0.838305,-0.410897,0
14880,0.373137,-0.83873,-0.409746,0
14900,0.370812,-0.83578,-0.409197,0
14920,0.370669,-0.833298,-0.40926,0
14940,0.371635,-0.833457,-0.409486,0
14960,0.3724,-0.835388,-0.408477,0
14980,0.36848,-0.838542,-0.404071,0
15000,0.364125,-0.838753,-0.398512,0
15020,0.363366,-0.837042,-0.398506,0
15040,0.362166,-0.838304,-0.398684,0
15060,0.359796,-0.841833,-0.398506,0
15080,0.357653,-0.844298,-0.397731,0
15100,0.35709,-0.843851,-0.399113,0
15120,0.354652,-0.844282,-0.398886,0
15140,0.346192,-0.848813,-0.390022,0
15160,0.341945,-0.848386,-0.383103,0
15180,0.330242,-0.842158,-0.371075,0
15200,0.31671,-0.836714,-0.355923,0
15220,0.307622,-0.830632,-0.345399,0
15240,0.299932,-0.825902,-0.338486,0
15260,0.297171,-0.822835,-0.33519,0
15280,0.297548,-0.820857,-0.336414,0
15300,0.291797,-0.820382,-0.336794,0
15320,0.29287,-0.827114,-0.343089,0
15340,0.296584,-0.83812,-0.349839,0
15360,0.31037,-0.849151,-0.367849,0
15380,0.327296,-0.864117,-0.391248,0
15400,0.35185,-0.880623,-0.426804,0
15420,0.381169,-0.895289,-0.467466,0
15440,0.418527,-0.912738,-0.514972,0
15460,0.451417,-0.937375,-0.55756,0
15480,0.496992,-0.959894,-0.615806,0
15500,0.560966,-0.976318,-0.686261,0
15520,0.632151,-0.976101,-0.764961,0
15540,0.716505,-0.970348,-0.863739,0
15560,0.795015,-0.972338,-0.955441,0
15580,0.862442,-0.972009,-1.02595,0
15600,0.9213,-0.966675,-1.0767,0
15620,0.971402,-0.966999,-1.11817,0
15640,1.01255,-0.975819,-1.15025,0
15660,1.049,-0.983781,-1.17288,0
15680,1.08587,-0.982952,-1.19116,0
15700,1.12447,-0.977787,-1.21186,0
15720,1.1402,-0.976761,-1.20927,0
15740,1.15241,-0.982759,-1.20427,0
15760,1.16762,-0.984844,-1.20585,0
15780,1.18266,-0.981919,-1.21216,0
15800,1.19427,-0.980059,-1.22125,0
15820,1.19752,-0.989402,-1.22572,0
15840,1.1887,-0.999507,-1.21479,0
15860,1.18578,-1.00007,-1.20809,0
15880,1.18439,-0.996995,-1.20635,0
15900,1.18119,-0.992625,-1.20712,0
15920,1.18076,-0.992434,-1.20796,0
15940,1.17335,-0.999982,-1.19889,0
15960,1.16343,-1.00596,-1.18743,0
15980,1.15531,-1.00575,-1.17985,0
16000,1.14763,-1.00136,-1.17362,0
16020,1.14673,-0.999246,-1.17093,0
16040,1.14512,-1.00965,-1.16704,0
16060,1.13916,-1.01999,-1.15683,0
16080,1.13727,-1.02169,-1.15072,0
16100,1.13263,-1.01821,-1.14743,0
16120,1.11883,-1.00829,-1.13491,0
16140,1.11448,-1.00898,-1.13335,0
16160,1.11421,-1.02099,-1.136,0
16180,1.11425,-1.03275,-1.13251,0
16200,1.12114,-1.04324,-1.13365,0
16220,1.13917,-1.05336,-1.1623,0
16240,1.15172,-1.06155,-1.19623,0
16260,1.14834,-1.0652,-1.2162,0
16280,1.14559,-1.06405,-1.23192,0
16300,1.14593,-1.0622,-1.24622,0
16320,1.14968,-1.06676,-1.26035,0
16340,1.15692,-1.07847,-1.28803,0
16360,1.15638,-1.09,-1.31483,0
16380,1.13911,-1.09495,-1.3193,0
16400,1.12453,-1.09196,-1.32263,0
16420,1.11761,-1.08702,-1.33228,0
16440,1.12001,-1.08976,-1.34337,0
16460,1.1397,-1.11679,-1.38152,0
16480,1.15918,-1.15469,-1.44038,0
16500,1.14624,-1.18673,-1.46004,0
16520,1.09788,-1.17942,-1.45384,0
16540,1.03644,-1.15598,-1.42091,0
16560,1.01712,-1.1447,-1.41548,0
16580,1.01502,-1.16445,-1.42702,0
16600,1.00972,-1.17631,-1.43103,0
16620,0.958389,-1.18496,-1.39292,0
16640,0.85496,-1.17392,-1.29121,0
16660,0.755538,-1.18992,-1.18626,0
16680,0.668225,-1.18932,-1.12308,0
16700,0.674106,-1.21519,-1.15143,0
16720,0.733398,-1.24438,-1.2188,0
16740,0.788288,-1.26513,-1.30522,0
16750,0.80036,-1.29386,-1.36559,0
16770,0.82555,-1.32475,-1.42267,0
16790,0.887768,-1.35634,-1.51435,0
16810,1.00543,-1.38623,-1.6675,0
16830,1.14252,-1.41584,-1.84951,0
16850,1.2897,-1.43702,-2.05774,0
16870,1.43593,-1.44557,-2.26935,0
16890,1.61103,-1.43777,-2.50589,0
16910,1.70516,-1.41802,-2.66408,0
16930,1.76378,-1.40175,-2.78458,0
16950,1.82549,-1.39521,-2.90646,0
16970,1.87788,-1.3944,-3.01634,0
16990,1.88564,-1.39003,-3.07132,0
17010,1.87179,-1.39319,-3.09726,0
17030,1.96055,-1.41259,3.0699,0
17050,2.10366,-1.42319,2.90162,0
17070,2.21931,-1.42975,2.76099,0
17090,2.27155,-1.42789,2.69031,0
17110,2.23495,-1.42434,2.70363,0
17130,2.10896,-1.41786,2.81075,0
17150,1.99115,-1.40834,2.92909,0
17170,1.88966,-1.39798,3.03812,0
17190,1.86945,-1.39769,3.06658,0
17210,2.07414,-1.4193,2.86625,0
17230,2.20048,-1.45699,2.73355,0
17250,2.22875,-1.47515,2.70243,0
17270,2.23124,-1.47858,2.70702,0
17290,2.46503,-1.4748,2.50802,0
17310,2.39215,-1.47393,2.65802,0
17330,2.50154,-1.46019,2.60604,0
17350,2.27289,-1.47677,2.78364,0
17370,2.16353,-1.48614,2.86811,0
17390,2.1831,-1.47919,2.87831,0
17410,2.01877,-1.47569,3.03538,0
17430,2.09994,-1.48122,2.95222,0
17450,2.03916,-1.48762,3.00998,0
17470,2.03003,-1.48482,3.01636,0
17490,2.04358,-1.48002,3.0014,0
17510,2.09681,-1.48732,2.95106,0
17530,2.10269,-1.49141,2.94578,0
17550,2.15514,-1.48439,2.89505,0
17570,2.17485,-1.48574,2.876,0
17590,2.18219,-1.49169,2.86769,0
17610,2.21583,-1.48832,2.83483,0
17630,2.20193,-1.48574,2.84659,0
17650,2.20569,-1.49073,2.84252,0
17670,2.25937,-1.49061,2.7896,0
17690,2.2439,-1.48749,2.80446,0
17710,2.25866,-1.48913,2.78905,0
17730,2.32053,-1.49324,2.73059,0
17750,2.3438,-1.49174,2.70526,0
17770,2.33736,-1.4917,2.71323,0
17790,2.35735,-1.49155,2.69272,0
17810,2.37781,-1.49243,2.672,0
17830,2.38485,-1.49112,2.6643,0
17850,2.38999,-1.49169,2.65928,0
17870,2.41567,-1.49274,2.63374,0
17890,2.42875,-1.49302,2.62182,0
17910,2.43195,-1.49358,2.61862,0
17930,2.458,-1.49225,2.59216,0
17950,2.47194,-1.49221,2.57745,0
17970,2.47721,-1.49327,2.57386,0
17990,2.49349,-1.49299,2.55717,0
18010,2.49632,-1.49244,2.55357,0
18030,2.50558,-1.49252,2.54489,0
18050,2.51882,-1.49289,2.532,0
18070,2.53172,-1.4927,2.51855,0
18090,2.54288,-1.49238,2.50785,0
18110,2.55134,-1.49218,2.49885,0
18130,2.56531,-1.4933,2.48648,0
18150,2.56915,-1.49235,2.48162,0
18170,2.57134,-1.49234,2.47943,0
18190,2.57353,-1.49234,2.47725,0
18210,2.58675,-1.492,2.46453,0
18230,2.5917,-1.49158,2.45856,0
18250,2.60337,-1.49259,2.44861,0
18270,2.60554,-1.49258,2.44645,0
18290,2.60771,-1.49258,2.44428,0
18310,2.60988,-1.49257,2.44212,0
18330,2.61206,-1.49256,2.43995,0
18350,2.61423,-1.49255,2.43779,0
18370,2.6172,-1.49191,2.43418,0
18390,2.61937,-1.4919,2.43201,0
18410,2.62154,-1.49189,2.42985,0
18430,2.6229,-1.49252,2.42915,0
18450,2.62507,-1.49251,2.42699,0
18470,2.62787,-1.49178,2.42366,0
18490,2.63003,-1.49177,2.42151,0
18510,2.63219,-1.49176,2.41936,0
18530,2.63687,-1.49257,2.41506,0
18550,2.63929,-1.49099,2.41099,0
18570,2.64029,-1.49077,2.40953,0
18590,2.64279,-1.49161,2.40815,0
18610,2.65759,-1.49201,2.39361,0
18630,2.66977,-1.49315,2.38223,0
18650,2.67163,-1.4905,2.37856,0
18670,2.67406,-1.49133,2.37726,0
18690,2.68523,-1.49133,2.36532,0
18710,2.69146,-1.4913,2.35988,0
18730,2.69592,-1.49153,2.35574,0
18750,2.70789,-1.49069,2.3435,0
18770,2.71504,-1.49107,2.33649,0
18790,2.71713,-1.48952,2.33356,0
18810,2.72885,-1.49005,2.32257,0
18830,2.73424,-1.49026,2.31693,0
18850,2.74134,-1.48994,2.3102,0
18870,2.74232,-1.49014,2.30967,0
18890,2.74439,-1.49012,2.30762,0
18910,2.75065,-1.49017,2.30207,0
18930,2.75556,-1.4894,2.29596,0
18950,2.75926,-1.48938,2.29303,0
18970,2.7662,-1.48859,2.28491,0
18990,2.76825,-1.48857,2.28289,0
19010,2.77029,-1.48855,2.28087,0
19030,2.77029,-1.48855,2.28087,0
19050,2.77291,-1.48943,2.27924,0
19070,2.77375,-1.48881,2.27781,0
19090,2.77437,-1.48851,2.27684,0
19110,2.77641,-1.48849,2.27482,0
19130,2.77725,-1.48787,2.27339,0
19150,2.77853,-1.48928,2.27378,0
19170,2.77936,-1.48866,2.27235,0
19190,2.78048,-1.48844,2.2708,0
19210,2.78132,-1.48783,2.26937,0
19230,2.78258,-1.48924,2.26977,0
19250,2.78342,-1.48862,2.26834,0
19270,2.78461,-1.48922,2.26777,0
19290,2.78544,-1.4886,2.26634,0
19310,2.78747,-1.48857,2.26434,0
19330,2.78747,-1.48857,2.26434,0
19350,2.78949,-1.48855,2.26235,0
19370,2.78949,-1.48855,2.26235,0
19390,2.79151,-1.48853,2.26035,0
19400,2.7963,-1.486,2.2528,0
19420,2.79162,-1.48928,2.26471,0
19440,2.79569,-1.48534,2.3004,0
19460,2.82687,-1.47531,2.27693,0
19480,2.93307,-1.38586,2.16434,0
19500,3.09374,-1.25441,2.01161,0
19520,-3.07828,-1.19453,1.93325,0
19540,-2.98726,-1.17839,1.86378,0
19560,-2.8512,-1.23862,1.78471,0
19580,-2.56607,-1.34632,1.53819,0
19600,-1.94791,-1.41173,0.978098,0
19620,-1.25207,-1.39874,0.363877,0
19640,-0.80002,-1.32317,-0.0133828,0
19660,-0.56907,-1.24098,-0.160346,0
19680,-0.405289,-1.14254,-0.258916,0
19700,-0.31606,-1.03853,-0.311465,0
19720,-0.276117,-0.97476,-0.308748,0
19740,-0.238587,-0.865199,-0.292056,0
19760,-0.180373,-0.75353,-0.290999,0
19780,-0.11395,-0.658339,-0.297985,0
19800,-0.0606658,-0.590269,-0.319868,0
19820,-0.00521091,-0.554417,-0.343145,0
19840,0.0177735,-0.485469,-0.336921,0
19860,0.0156475,-0.401749,-0.305938,0
19880,0.016241,-0.319217,-0.260498,0
19900,0.0271239,-0.258386,-0.230648,0
19920,0.0457011,-0.206983,-0.211097,0
19920,0.0583995,-0.169947,-0.196466,0
19940,0.0692464,-0.149297,-0.183997,0
19960,0.0778017,-0.126306,-0.175389,0
19970,0.0924675,-0.108832,-0.169584,0
19980,0.102345,-0.124552,-0.168093,0
20020,0.011445,-0.208558,-0.116262,0
20060,0.0779758,-0.160531,-0.193195,0
20080,0.0911599,-0.0982629,-0.190094,0
20100,0.063174,-0.00615665,-0.196768,0
20120,0.0694039,0.0269581,-0.168812,0
20140,0.0320284,0.0338134,-0.1395,0
20160,0.00918386,0.0219593,-0.121315,0
20180,0.00280064,0.041499,-0.118317,0
20200,0.0193096,0.0697341,-0.0948808,0
20220,0.0492804,0.069686,-0.0515583,0
20240,0.0288819,0.0726303,-0.0153197,0
20260,0.0140334,0.126827,0.0322049,0
20280,0.0167722,0.160388,0.0592804,0
20300,0.0161008,0.179029,0.0618774,0
20320,0.0425827,0.211724,0.0701014,0
20340,0.0607291,0.230829,0.108634,0
20360,0.0873894,0.264698,0.167718,0
20380,0.100148,0.297729,0.241302,0
20400,0.0871712,0.319705,0.339125,0
20420,0.0961396,0.341059,0.336368,0
20440,0.0930289,0.391642,0.412047,0
20460,0.029821,0.541824,0.39846,0
20480,-0.0596198,0.699629,0.302018,0
20500,-0.146978,0.733629,0.185843,0
20520,-0.125903,0.735808,0.213852,0
20540,-0.144096,0.730374,0.173084,0
20560,-0.175107,0.680647,0.138014,0
20580,-0.176632,0.63453,0.118853,0
20600,-0.171853,0.611451,0.101325,0
20620,-0.159935,0.594366,0.0767325,0
20640,-0.158258,0.567887,0.0648514,0
20660,-0.163204,0.527642,0.0583463,0
20680,-0.159894,0.500245,0.0552679,0
20700,-0.146272,0.483276,0.0578183,0
20720,-0.12942,0.457865,0.0579908,0
20740,-0.102914,0.449464,0.0558357,0
20760,-0.0768819,0.461566,0.0545904,0
20780,-0.0534763,0.471297,0.0655364,0
20800,-0.0463906,0.481342,0.0743754,0
20820,-0.0506095,0.445681,0.0679262,0
20840,-0.0615393,0.417164,0.0276671,0
20860,-0.106786,0.423289,0.00703835,0
20880,-0.146558,0.433843,0.00486452,0
20900,-0.163976,0.414324,0.0207722,0
20920,-0.151016,0.417302,0.0312787,0
20940,-0.133115,0.436768,0.0607838,0
20960,-0.144416,0.473882,0.070728,0
20980,-0.150037,0.520089,0.0699855,0
21000,-0.159633,0.56424,0.0690444,0
21020,-0.169141,0.61248,0.0711839,0
21040,-0.198073,0.651307,0.0771964,0
21060,-0.217265,0.675451,0.0899571,0
21080,-0.262149,0.639164,0.0397263,0
21100,-0.265476,0.656683,-0.00290003,0
21120,-0.242488,0.689337,-0.00805425,0
21140,-0.244737,0.757084,-0.0230499,0
21160,-0.280786,0.734671,-0.0915131,0
21180,-0.316963,0.724788,-0.120523,0
21200,-0.321414,0.699315,-0.1177,0
21220,-0.285643,0.67297,-0.0414012,0
21240,-0.312836,0.622926,-0.057896,0
21260,-0.327463,0.589874,-0.0747267,0
21280,-0.365141,0.547376,-0.113234,0
21300,-0.438304,0.581142,-0.188643,0
21320,-0.490743,0.738041,-0.214863,0
21340,-0.545778,0.841671,-0.269512,0
21360,-0.526814,0.903611,-0.292899,0
21380,-0.441049,0.838154,-0.23984,0
21400,-0.560338,0.825828,-0.425786,0
21420,-0.70009,0.916778,-0.558062,0
21440,-0.718438,0.769827,-0.702129,0
21460,-0.713004,0.677157,-0.580259,0
21480,-0.666615,0.602955,-0.533418,0
21500,-0.637081,0.581647,-0.496044,0
21520,-0.632855,0.554937,-0.487119,0
21540,-0.627099,0.520914,-0.485141,0
21560,-0.637442,0.508969,-0.49047,0
21580,-0.644389,0.507983,-0.493767,0
21600,-0.642459,0.497259,-0.492166,0
21620,-0.638311,0.484272,-0.492882,0
21640,-0.618867,0.469371,-0.48334,0
21660,-0.603941,0.454137,-0.473583,0
21680,-0.595079,0.444639,-0.454713,0
21700,-0.589343,0.433826,-0.437917,0
21720,-0.585065,0.422657,-0.429174,0
21740,-0.575256,0.406639,-0.423836,0
21760,-0.564949,0.386375,-0.413128,0
21780,-0.566286,0.369156,-0.399612,0
21800,-0.56811,0.349879,-0.388055,0
21820,-0.563358,0.318732,-0.380007,0
21840,-0.557083,0.281033,-0.370398,0
21860,-0.543336,0.241798,-0.350284,0
21880,-0.527333,0.216009,-0.330392,0
21900,-0.525427,0.196775,-0.32155,0
21920,-0.508608,0.185382,-0.312223,0
21940,-0.487999,0.179459,-0.305017,0
21960,-0.470701,0.181016,-0.297999,0
21980,-0.446582,0.181672,-0.292859,0
22000,-0.401274,0.186095,-0.285376,0
22020,-0.341481,0.181766,-0.286318,0
22040,-0.257086,0.180863,-0.290801,0
22050,-0.163139,0.17715,-0.303608,0
22070,-0.0681053,0.162942,-0.330746,0
22090,0.0265506,0.149111,-0.363623,0
22110,0.09926,0.137066,-0.388496,0
22130,0.138274,0.12831,-0.399402,0
22150,0.141075,0.115033,-0.404163,0
22170,0.125389,0.099217,-0.410302,0
22190,0.110698,0.0803139,-0.41712,0
22210,0.100458,0.0660135,-0.421637,0
22230,0.109011,0.0550043,-0.424099,0
22250,0.117144,0.047837,-0.427242,0
22270,0.113309,0.0406043,-0.429043,0
22290,0.115435,0.033668,-0.430785,0
22310,0.115956,0.0278042,-0.435362,0
22330,0.115896,0.0224172,-0.439658,0
22350,0.117263,0.0191222,-0.442219,0
22370,0.116869,0.0142293,-0.443635,0
22390,0.119773,0.00732628,-0.440913,0
22410,0.127178,0.000547759,-0.440306,0
22430,0.139458,-0.00555238,-0.441019,0
22450,0.152565,-0.0105459,-0.444052,0
22470,0.164356,-0.0152373,-0.446352,0
22490,0.177185,-0.0157936,-0.446993,0
22510,0.181349,-0.0134,-0.449154,0
22530,0.168633,-0.0136123,-0.45122,0
22550,0.15224,-0.0178253,-0.45014,0
22570,0.146362,-0.0218641,-0.449283,0
22590,0.154043,-0.0245891,-0.449981,0
22610,0.166364,-0.0255542,-0.451429,0
22630,0.176685,-0.0264612,-0.452993,0
22650,0.180334,-0.0269571,-0.453528,0
22670,0.18077,-0.027287,-0.45295,0
22690,0.18196,-0.0270821,-0.452229,0
22710,0.184722,-0.0261567,-0.451212,0
22730,0.188921,-0.0253854,-0.450523,0
22750,0.192427,-0.0242226,-0.450414,0
22770,0.193936,-0.023092,-0.450725,0
22790,0.192493,-0.0222888,-0.450722,0
22810,0.191882,-0.0217712,-0.451032,0
22830,0.192719,-0.0220081,-0.451839,0
22850,0.194216,-0.0218293,-0.452747,0
22870,0.195543,-0.0214548,-0.453519,0
22890,0.195452,-0.0215247,-0.454262,0
22910,0.195247,-0.021675,-0.454529,0
22930,0.195637,-0.0216737,-0.45492,0
22950,0.196293,-0.0217474,-0.455202,0
22970,0.197066,-0.0223213,-0.455302,0
22990,0.197398,-0.0232868,-0.454895,0
23010,0.197579,-0.0241996,-0.454104,0
23030,0.198227,-0.0248127,-0.454072,0
23050,0.19916,-0.0256426,-0.453686,0
23070,0.200835,-0.0269409,-0.453261,0
23090,0.202438,-0.0284879,-0.452969,0
23110,0.203383,-0.0304789,-0.452344,0
23130,0.205433,-0.0334564,-0.45185,0
23150,0.208301,-0.0361279,-0.451381,0
23170,0.212062,-0.0383558,-0.450776,0
23190,0.216703,-0.0395405,-0.449856,0
23210,0.224626,-0.0400983,-0.446754,0
23230,0.233821,-0.0383531,-0.441679,0
23250,0.235361,-0.0308592,-0.434789,0
23270,0.239312,-0.015893,-0.430471,0
23290,0.25033,0.00184506,-0.432265,0
23310,0.254802,0.0212475,-0.441134,0
23330,0.247748,0.0432246,-0.455779,0
23350,0.234893,0.0642358,-0.478404,0
23370,0.213605,0.0829137,-0.510139,0
23390,0.187783,0.0910013,-0.548073,0
23410,0.17468,0.0952877,-0.590895,0
23430,0.186338,0.0994386,-0.638408,0
23450,0.221854,0.100822,-0.687505,0
23470,0.257648,0.0969669,-0.733643,0
23490,0.276941,0.0878906,-0.765937,0
23510,0.275983,0.0750651,-0.790331,0
23530,0.256919,0.0560356,-0.813493,0
23550,0.246757,0.0305192,-0.830106,0
23570,0.257275,0.00611947,-0.843446,0
23590,0.280471,-0.0146607,-0.856257,0
23610,0.299081,-0.0354923,-0.86401,0
23630,0.305818,-0.0527155,-0.867859,0
23650,0.311569,-0.0601339,-0.86899,0
23660,0.320142,-0.0594989,-0.870577,0
23680,0.322309,-0.0588425,-0.86823,0
23700,0.323417,-0.0597558,-0.86431,0
23700,0.333011,-0.0599245,-0.863029,0
23720,0.349169,-0.0572046,-0.865505,0
23740,0.360566,-0.0526822,-0.867964,0
23760,0.360716,-0.0496544,-0.866029,0
23760,0.356445,-0.0470181,-0.863133,0
23780,0.355424,-0.0450291,-0.862227,0
23800,0.358149,-0.043232,-0.86232,0
23810,0.359646,-0.0417371,-0.862344,0
23820,0.358399,-0.0400197,-0.862,0
23840,0.357032,-0.0378992,-0.862161,0
23880,0.3554,-0.0351351,-0.862705,0
23920,0.35576,-0.032485,-0.863602,0
23970,0.356827,-0.0304873,-0.864427,0
23990,0.356745,-0.0293174,-0.865004,0
24010,0.355162,-0.02855,-0.864988,0
24030,0.354023,-0.0276198,-0.864708,0
24050,0.354091,-0.0267699,-0.863867,0
24070,0.355401,-0.0255503,-0.863495,0
24090,0.357292,-0.0251017,-0.86263,0
24110,0.358236,-0.0254351,-0.862257,0
24130,0.358055,-0.0257416,-0.861749,0
24140,0.358032,-0.0258773,-0.860933,0
24140,0.358072,-0.0261031,-0.860292,0
24160,0.358638,-0.0259706,-0.859657,0
24200,0.359998,-0.0248343,-0.859427,0
24220,0.362295,-0.0240043,-0.85894,0
24240,0.361531,-0.0224154,-0.858464,0
24260,0.357348,-0.0207556,-0.856927,0
24280,0.35411,-0.016559,-0.855874,0
24300,0.359417,-0.0137975,-0.856243,0
24320,0.357872,-0.0198992,-0.856541,0
24340,0.356964,-0.0138763,-0.855891,0
24360,0.353029,-0.018474,-0.855422,0
24380,0.362732,-0.0207805,-0.856076,0
24400,0.360327,-0.0129412,-0.85561,0
24420,0.351776,-0.00685714,-0.85499,0
24440,0.345264,-0.00610463,-0.854458,0
24460,0.341387,-0.00903764,-0.853966,0
24480,0.337318,-0.0114937,-0.853663,0
24500,0.33126,-0.00727463,-0.852981,0
24520,0.323844,0.006311,-0.85275,0
24540,0.320863,0.0237109,-0.852916,0
24560,0.327888,0.0235486,-0.853118,0
24580,0.333413,0.00143777,-0.85291,0
24600,0.326452,0.00773259,-0.852579,0
24620,0.331758,0.019478,-0.853049,0
24640,0.331346,-0.00180882,-0.852877,0
24660,0.331026,0.0202347,-0.853176,0
24680,0.331822,-0.00220382,-0.85324,0
24700,0.337843,0.0118088,-0.85326,0
24720,0.330135,0.0143216,-0.85271,0
24740,0.333462,-0.00741141,-0.852621,0
24760,0.342475,-0.00656122,-0.852804,0
24780,0.343145,-0.00205091,-0.852759,0
24800,0.342242,0.00231081,-0.852731,0
24820,0.335734,0.0130982,-0.852891,0
24840,0.328534,0.0203177,-0.853129,0
24860,0.326989,0.0222054,-0.853112,0
24880,0.322543,0.0352986,-0.852704,0
24900,0.322009,0.0524819,-0.853032,0
24920,0.323331,0.0558952,-0.852871,0
24940,0.331491,0.0534054,-0.852123,0
24960,0.334692,0.0342236,-0.852072,0
24980,0.333167,0.0321881,-0.852172,0
25000,0.330099,0.0465322,-0.852178,0
25020,0.336797,0.053997,-0.851757,0
25040,0.341957,0.0376113,-0.85101,0
25060,0.340549,0.0346905,-0.851118,0
25080,0.336251,0.0476012,-0.851506,0
25100,0.33787,0.0500857,-0.851495,0
25120,0.343596,0.0345274,-0.85078,0
25130,0.342473,0.0313022,-0.850851,0
25160,0.337804,0.0429086,-0.851006,0
25180,0.336768,0.0579609,-0.851278,0
25200,0.334047,0.0536798,-0.851003,0
25220,0.334117,0.0516706,-0.850891,0
25240,0.334387,0.0513922,-0.850959,0
25260,0.334586,0.0509343,-0.850897,0
25280,0.33479,0.0504962,-0.850983,0
25300,0.335055,0.0501981,-0.850904,0
25320,0.328689,0.0534011,-0.850243,0
25340,0.330107,0.072373,-0.850242,0
25360,0.329392,0.0761235,-0.850348,0
25380,0.330288,0.0799,-0.850225,0
25400,0.338215,0.0734089,-0.849732,0
25420,0.338037,0.0531446,-0.849904,0
25440,0.331199,0.054173,-0.850362,0
25460,0.331433,0.0581989,-0.8503,0
25480,0.339404,0.0537778,-0.85003,0
25500,0.338815,0.0347434,-0.849787,0
25520,0.333487,0.0371582,-0.849482,0
25540,0.334693,0.0362782,-0.849174,0
25560,0.334841,0.03593,-0.849094,0
25580,0.335111,0.0356512,-0.849166,0
25600,0.335259,0.035303,-0.849086,0
25620,0.335638,0.0338689,-0.849202,0
25640,0.335734,0.0336303,-0.8491,0
25660,0.335889,0.0333016,-0.849168,0
25680,0.336153,0.0330033,-0.849093,0
25700,0.336424,0.0327245,-0.849166,0
25720,0.336572,0.0323764,-0.849087,0
25740,0.336727,0.0320477,-0.849155,0
25760,0.33694,0.031859,-0.849058,0
25780,0.337094,0.0315303,-0.849127,0
25800,0.337359,0.0312321,-0.849053,0
25820,0.337462,0.0310129,-0.849099,0
25840,0.337616,0.0306843,-0.849168,0
25860,0.337881,0.030386,-0.849094,0
25880,0.337984,0.0301669,-0.84914,0
25900,0.338086,0.0289924,-0.84904,0
25920,0.338241,0.0286637,-0.84911,0
25940,0.338338,0.0284252,-0.849009,0
25960,0.338609,0.0281464,-0.849083,0
25980,0.338828,0.0279771,-0.849134,0
26000,0.338977,0.027629,-0.849057,0
26020,0.33908,0.0274099,-0.849104,0
26040,0.339228,0.0270618,-0.849027,0
26060,0.339332,0.0268427,-0.849073,0
26080,0.339551,0.0266734,-0.849125,0
26100,0.3397,0.0263253,-0.849048,0
26120,0.339977,0.0251108,-0.849127,0
26140,0.340197,0.0249415,-0.849178,0
26160,0.340352,0.0246129,-0.849249,0
26180,0.340449,0.0243744,-0.849149,0
26200,0.340669,0.0242051,-0.849201,0
26220,0.340765,0.0239666,-0.849102,0
26240,0.340869,0.0237475,-0.849149,0
26260,0.341017,0.0233994,-0.849073,0
26280,0.341121,0.0231803,-0.849121,0
26300,0.341276,0.0228517,-0.849192,0
26320,0.341373,0.0226132,-0.849092,0
26340,0.341593,0.0224439,-0.849145,0
26360,0.341696,0.0222248,-0.849193,0
26380,0.341793,0.0219863,-0.849093,0
26400,0.341949,0.0216577,-0.849165,0
26420,0.342045,0.0214191,-0.849066,0
26440,0.342265,0.0212498,-0.849119,0
26460,0.342369,0.0210307,-0.849167,0
26480,0.342466,0.0207922,-0.849068,0
26500,0.342569,0.0205731,-0.849116,0
26520,0.342789,0.0204038,-0.849169,0
26540,0.342886,0.0201653,-0.84907,0
26560,0.34299,0.0199462,-0.849118,0
26580,0.344011,0.0189014,-0.84911,0
26600,0.344108,0.0186628,-0.849011,0
26620,0.344194,0.0184513,-0.849027,0
26640,0.344298,0.0182323,-0.849076,0
26660,0.344394,0.0179938,-0.848977,0
26680,0.344517,0.0177671,-0.849059,0
26700,0.344711,0.0175859,-0.848933,0
26720,0.344815,0.0173668,-0.848982,0
26740,0.345114,0.016145,-0.849102,0
26760,0.345933,0.0146498,-0.849272,0
26780,0.346029,0.0144112,-0.849174,0
26800,0.346134,0.0141922,-0.849224,0
26820,0.346354,0.0140228,-0.849278,0
26840,0.346451,0.0137843,-0.849181,0
26860,0.346503,0.0136748,-0.849206,0
26880,0.346607,0.0134558,-0.849255,0
26900,0.346704,0.0132172,-0.849158,0
26920,0.346924,0.0130479,-0.849213,0
26940,0.347028,0.0128289,-0.849263,0
26960,0.347125,0.0125903,-0.849166,0
26980,0.34723,0.0123713,-0.849215,0
27000,0.347334,0.0121523,-0.849265,0
27020,0.347547,0.0119634,-0.849174,0
27040,0.347651,0.0117444,-0.849224,0
27060,0.347755,0.0115254,-0.849274,0
27080,0.347969,0.0113364,-0.849182,0
27100,0.348054,0.0111255,-0.849199,0
27120,0.348177,0.0108984,-0.849282,0
27140,0.348372,0.0107176,-0.849158,0
27160,0.348424,0.0106081,-0.849183,0
27180,0.348529,0.0103891,-0.849234,0
27200,0.348625,0.0101506,-0.849137,0
27220,0.34873,0.00993158,-0.849188,0
27240,0.348782,0.00982208,-0.849213,0
27260,0.348995,0.00963315,-0.849122,0
27280,0.349099,0.00941416,-0.849172,0
27300,0.349204,0.00919516,-0.849223,0
27310,0.349373,0.00913528,-0.849254,0
27330,0.349469,0.00889672,-0.849157,0
27350,0.349574,0.00867773,-0.849208,0
27370,0.349678,0.00845873,-0.849259,0
27390,0.349775,0.00822017,-0.849163,0
27410,0.349944,0.00816028,-0.849193,0
27430,0.350048,0.00794129,-0.849244,0
27450,0.350145,0.00770273,-0.849148,0
27470,0.35025,0.00748373,-0.849199,0
27490,0.351171,0.00695401,-0.849226,0
27510,0.352359,0.00642247,-0.849258,0
27530,0.353255,0.00510704,-0.849571,0
27550,0.353855,0.00353362,-0.849896,0
27570,0.354733,0.00193045,-0.850113,0
27590,0.355213,0.00109783,-0.849635,0
27610,0.355718,0.00113484,-0.847748,0
27630,0.356718,0.00180823,-0.845273,0
27650,0.358432,0.00335369,-0.841329,0
27670,0.35977,0.00507506,-0.837041,0
27690,0.361044,0.00720091,-0.832289,0
27710,0.362182,0.00982908,-0.82687,0
27730,0.362583,0.0129599,-0.821575,0
27750,0.362811,0.0180822,-0.815944,0
27770,0.363163,0.0267263,-0.81008,0
27790,0.364197,0.0381258,-0.804612,0
27810,0.365814,0.0489203,-0.8012,0
27830,0.36567,0.0591871,-0.797667,0
27850,0.362006,0.0705748,-0.794472,0
27870,0.357585,0.0819877,-0.791715,0
27890,0.354465,0.0917346,-0.790024,0
27910,0.353343,0.0980469,-0.789127,0
27930,0.352103,0.102653,-0.787958,0
27950,0.348998,0.107524,-0.786052,0
27970,0.344828,0.115019,-0.782161,0
27990,0.343249,0.125153,-0.777908,0
28010,0.343769,0.13565,-0.773293,0
28030,0.344383,0.145303,-0.769579,0
28050,0.342961,0.154798,-0.766747,0
28070,0.339099,0.165061,-0.764114,0
28090,0.334829,0.176173,-0.762019,0
28110,0.329851,0.18519,-0.761461,0
28130,0.325625,0.19269,-0.761182,0
28150,0.321566,0.201101,-0.761075,0
28170,0.317493,0.209879,-0.760817,0
28190,0.314562,0.218856,-0.761257,0
28210,0.313232,0.227539,-0.761554,0
28230,0.31211,0.23423,-0.762074,0
28250,0.31043,0.239533,-0.762798,0
28270,0.30821,0.244783,-0.763704,0
28290,0.306569,0.250242,-0.765142,0
28310,0.305807,0.255142,-0.766586,0
28330,0.305085,0.258709,-0.768543,0
28350,0.30477,0.260661,-0.77029,0
28370,0.303762,0.262131,-0.772352,0
28390,0.302481,0.263381,-0.773941,0
28410,0.301305,0.264095,-0.775332,0
28430,0.300807,0.264428,-0.776693,0
28450,0.300025,0.264827,-0.777641,0
28470,0.299979,0.265838,-0.778804,0
28490,0.300243,0.266321,-0.779953,0
28510,0.299875,0.266363,-0.780912,0
28530,0.298648,0.266262,-0.781707,0
28550,0.297778,0.266203,-0.78257,0
28570,0.296633,0.265823,-0.783797,0
28590,0.295546,0.265596,-0.784979,0
28610,0.294631,0.26628,-0.78634,0
28630,0.293729,0.267914,-0.787733,0
28650,0.292602,0.270267,-0.788566,0
28670,0.291322,0.272953,-0.789357,0
28690,0.291209,0.275778,-0.790343,0
28710,0.291383,0.278388,-0.79229,0
28730,0.291478,0.280519,-0.793998,0
28750,0.289925,0.281895,-0.796177,0
28770,0.287399,0.282233,-0.798666,0
28790,0.284856,0.282006,-0.801103,0
28810,0.282976,0.281999,-0.803821,0
28830,0.281846,0.281219,-0.806426,0
28850,0.280924,0.280577,-0.80929,0
28870,0.280543,0.279711,-0.811874,0
28890,0.280475,0.279665,-0.814462,0
28910,0.280974,0.280285,-0.817126,0
28930,0.281369,0.280387,-0.820086,0
28950,0.282104,0.280294,-0.823316,0
28970,0.282351,0.279651,-0.826897,0
28990,0.281656,0.278783,-0.830205,0
29010,0.280308,0.278184,-0.832947,0
29030,0.279894,0.278387,-0.835596,0
29050,0.281059,0.27838,-0.838247,0
29070,0.282945,0.276915,-0.84136,0
29090,0.283833,0.273809,-0.844054,0
29110,0.283291,0.269692,-0.845659,0
29130,0.282815,0.264293,-0.846844,0
29150,0.282501,0.258247,-0.847788,0
29170,0.28354,0.25307,-0.84717,0
29180,0.287326,0.249542,-0.84642,0
29200,0.292102,0.245582,-0.845944,0
29220,0.295972,0.241436,-0.845983,0
29240,0.298117,0.237161,-0.84602,0
29260,0.298351,0.233103,-0.846102,0
29280,0.297629,0.229411,-0.84624,0
29300,0.298437,0.226803,-0.847567,0
29320,0.299843,0.224283,-0.849952,0
29340,0.30191,0.221798,-0.853012,0
29360,0.303275,0.218342,-0.856884,0
29380,0.303048,0.214533,-0.860029,0
29400,0.303203,0.211424,-0.863802,0
29420,0.304882,0.208345,-0.86753,0
29440,0.307301,0.205163,-0.870948,0
29460,0.309186,0.201979,-0.874255,0
29480,0.309713,0.199438,-0.87729,0
29500,0.309353,0.197974,-0.879673,0
29520,0.309166,0.197949,-0.882033,0
29540,0.30908,0.198881,-0.88484,0
29560,0.309013,0.20097,-0.887957,0
29580,0.308238,0.203127,-0.889678,0
29600,0.308761,0.206061,-0.891422,0
29620,0.310251,0.209297,-0.893685,0
29640,0.310546,0.21292,-0.896618,0
29660,0.308633,0.217051,-0.899997,0
29680,0.305035,0.221971,-0.904636,0
29700,0.300738,0.227438,-0.909001,0
29720,0.297864,0.233257,-0.911651,0
29740,0.298758,0.238511,-0.913635,0
29760,0.301847,0.243431,-0.916507,0
29780,0.304607,0.247243,-0.920082,0
29800,0.305413,0.250185,-0.923573,0
29820,0.304876,0.252461,-0.926492,0
29840,0.30437,0.254099,-0.928886,0
29860,0.304582,0.255463,-0.930853,0
29880,0.305719,0.257377,-0.931906,0
29900,0.307494,0.259736,-0.932138,0
29920,0.31044,0.262671,-0.9323,0
29940,0.31358,0.26631,-0.932638,0
29960,0.315761,0.270454,-0.933116,0
29980,0.316457,0.275651,-0.933752,0
30000,0.316804,0.282057,-0.935007,0
30020,0.316998,0.290083,-0.936966,0
30040,0.316389,0.29924,-0.940168,0
30060,0.314129,0.308668,-0.944678,0
30080,0.310208,0.317933,-0.949271,0
30100,0.30469,0.326284,-0.953532,0
30120,0.295655,0.333655,-0.957571,0
30140,0.285613,0.340769,-0.961127,0
30160,0.279465,0.348774,-0.964895,0
30180,0.277411,0.356262,-0.968934,0
30200,0.277407,0.363449,-0.972195,0
30220,0.276699,0.370831,-0.973114,0
30240,0.274138,0.376555,-0.972462,0
30260,0.272033,0.381338,-0.97211,0
30280,0.272304,0.384396,-0.971408,0
30300,0.274297,0.386224,-0.969783,0
30320,0.27724,0.386834,-0.967957,0
30340,0.280038,0.385844,-0.965628,0
30360,0.281791,0.383282,-0.963243,0
30380,0.282554,0.379462,-0.9607,0
30400,0.282874,0.374768,-0.958426,0
30420,0.284425,0.370321,-0.956721,0
30440,0.287285,0.366089,-0.955335,0
30460,0.290335,0.362336,-0.953765,0
30480,0.293003,0.359254,-0.952335,0
30500,0.296074,0.356271,-0.951062,0
30520,0.29877,0.353308,-0.950081,0
30540,0.300647,0.350755,-0.949771,0
30560,0.302238,0.348195,-0.950607,0
30580,0.304347,0.344868,-0.951759,0
30600,0.306496,0.341049,-0.953671,0
30620,0.307186,0.337284,-0.95557,0
30640,0.306717,0.334199,-0.957097,0
30660,0.30681,0.331775,-0.958396,0
30680,0.308986,0.329754,-0.960249,0
30700,0.31331,0.327918,-0.961983,0
30720,0.317821,0.326391,-0.963433,0
30740,0.319963,0.325127,-0.964363,0
30760,0.321577,0.32383,-0.965222,0
30780,0.322945,0.322484,-0.965185,0
30800,0.323865,0.321175,-0.965815,0
30820,0.326,0.320562,-0.966582,0
30840,0.328566,0.320213,-0.966808,0
30860,0.330538,0.31979,-0.966415,0
30880,0.331044,0.319366,-0.966418,0
30900,0.333264,0.319453,-0.966972,0
30920,0.338189,0.319201,-0.96806,0
30940,0.343081,0.317448,-0.970462,0
30960,0.346815,0.313983,-0.972955,0
30980,0.348401,0.309678,-0.975707,0
31000,0.349225,0.303991,-0.979076,0
31020,0.34853,0.297186,-0.981947,0
31040,0.347969,0.291456,-0.983274,0
31060,0.349853,0.288105,-0.983074,0
31080,0.355405,0.286833,-0.983064,0
31100,0.362433,0.285856,-0.98271,0
31120,0.366614,0.285691,-0.981223,0
31140,0.370171,0.286513,-0.979539,0
31160,0.373871,0.287412,-0.97938,0
31180,0.377073,0.288049,-0.98149,0
31200,0.378497,0.288418,-0.984125,0
31220,0.378438,0.288229,-0.987768,0
31240,0.378807,0.287791,-0.991736,0
31260,0.380752,0.288531,-0.994598,0
31280,0.38378,0.289398,-0.998298,0
31300,0.388059,0.288182,-1.00206,0
31320,0.388462,0.282593,-1.00402,0
31340,0.384356,0.274723,-1.00336,0
31360,0.380203,0.266083,-0.999318,0
31380,0.380541,0.259453,-0.992587,0
31400,0.391683,0.255236,-0.980722,0
31420,0.411229,0.258467,-0.960261,0
31440,0.441781,0.276475,-0.935982,0
31460,0.463678,0.312465,-0.917879,0
31480,0.46063,0.361146,-0.903553,0
31500,0.44541,0.411675,-0.886506,0
31520,0.437866,0.458077,-0.856901,0
31540,0.451428,0.499132,-0.809902,0
31560,0.479122,0.536488,-0.749684,0
31580,0.516389,0.569435,-0.678404,0
31600,0.557974,0.597246,-0.598019,0
31620,0.602446,0.616698,-0.508792,0
31640,0.649239,0.625725,-0.413145,0
31660,0.692382,0.628317,-0.321795,0
31680,0.730089,0.626266,-0.234535,0
31700,0.764439,0.618378,-0.14922,0
31720,0.797579,0.602853,-0.0636621,0
31740,0.828611,0.586761,0.0173489,0
31760,0.855747,0.574493,0.0920045,0
31780,0.88187,0.561716,0.16218,0
31800,0.907314,0.54273,0.228339,0
31820,0.929021,0.516278,0.291647,0
31840,0.948582,0.484679,0.353902,0
31860,0.968531,0.454714,0.412764,0
31880,0.987776,0.432226,0.46517,0
31900,0.993403,0.412901,0.509083,0
31920,0.98444,0.397188,0.551205,0
31940,0.966405,0.382261,0.591483,0
31960,0.950615,0.373783,0.629551,0
31980,0.940892,0.371769,0.665379,0
32000,0.964503,0.365737,0.708182,0
32020,0.98037,0.333984,0.739425,0
32040,0.960397,0.314847,0.766069,0
32060,0.939682,0.300775,0.793744,0
32080,0.926404,0.291528,0.813814,0
32100,0.922311,0.279678,0.830859,0
32120,0.927441,0.273405,0.846507,0
32140,0.936588,0.273022,0.856291,0
32160,0.940189,0.275544,0.859862,0
32180,0.937347,0.27975,0.858661,0
32200,0.9333,0.284613,0.854001,0
32220,0.930039,0.287816,0.846524,0
32240,0.9296,0.290829,0.838207,0
32260,0.930224,0.296326,0.830633,0
32280,0.930157,0.301394,0.824635,0
32300,0.928031,0.30261,0.819874,0
32320,0.927982,0.302051,0.815617,0
32340,0.930829,0.300862,0.811757,0
32360,0.933708,0.303444,0.806488,0
32380,0.936164,0.310638,0.798678,0
32400,0.940131,0.321781,0.788266,0
32420,0.945072,0.334793,0.776275,0
32440,0.951117,0.349397,0.763518,0
32460,0.959733,0.364925,0.750182,0
32480,0.969605,0.380963,0.734885,0
32500,0.98026,0.39659,0.718353,0
32520,0.99172,0.414452,0.700874,0
32540,1.00356,0.431986,0.681489,0
32560,1.01181,0.449169,0.656154,0
32580,1.02127,0.465563,0.625844,0
32590,1.03003,0.486283,0.589341,0
32610,1.02887,0.507975,0.54591,0
32630,1.01738,0.528823,0.498068,0
32650,0.999845,0.548307,0.449794,0
32670,0.980139,0.568319,0.401039,0
32690,0.967562,0.590007,0.353675,0
32710,0.966899,0.614339,0.311966,0
32730,0.976555,0.640336,0.275853,0
32750,0.993613,0.667172,0.245045,0
32770,1.01833,0.698581,0.22049,0
32790,1.0425,0.732615,0.200811,0
32810,1.05035,0.764003,0.182174,0
32830,1.0367,0.795678,0.161309,0
32850,1.01021,0.831315,0.138263,0
32870,0.981322,0.867107,0.111188,0
32890,0.96276,0.899479,0.0835317,0
32910,0.952762,0.932016,0.0561167,0
32930,0.945989,0.965613,0.0287281,0
32950,0.937488,0.995863,0.00101104,0
32970,0.92224,1.02342,-0.0309365,0
32990,0.901478,1.04559,-0.0662762,0
33010,0.877651,1.06146,-0.10656,0
33030,0.848699,1.07259,-0.157364,0
33050,0.82067,1.07565,-0.218701,0
33070,0.803118,1.06415,-0.273312,0
33090,0.782407,1.0376,-0.321533,0
33110,0.761012,0.997097,-0.359551,0
33130,0.751011,0.948843,-0.386498,0
33150,0.755358,0.901688,-0.405767,0
33170,0.751467,0.862192,-0.429351,0
33190,0.737576,0.829507,-0.460244,0
33210,0.723918,0.797774,-0.486577,0
33230,0.710533,0.772001,-0.507067,0
33250,0.699868,0.749004,-0.52308,0
33270,0.697082,0.729265,-0.536301,0
33290,0.6968,0.709323,-0.548023,0
33310,0.691651,0.68776,-0.557016,0
33330,0.681342,0.666105,-0.56258,0
33350,0.671048,0.644029,-0.567685,0
33370,0.663036,0.622639,-0.573761,0
33390,0.659259,0.603157,-0.579074,0
33410,0.6606,0.583839,-0.580583,0
33430,0.660299,0.563821,-0.581562,0
33450,0.656564,0.544945,-0.582495,0
33470,0.652819,0.5265,-0.582712,0
33490,0.65603,0.507733,-0.580911,0
33510,0.664443,0.490282,-0.579503,0
33530,0.674731,0.474919,-0.57693,0
33550,0.682431,0.46208,-0.573004,0
33570,0.690866,0.451584,-0.568677,0
33590,0.700874,0.441812,-0.563139,0
33610,0.70978,0.433772,-0.559895,0
33630,0.720641,0.430629,-0.557648,0
33650,0.718779,0.42927,-0.564293,0
33670,0.708844,0.431223,-0.579307,0
33690,0.703844,0.436118,-0.598749,0
33710,0.705516,0.442404,-0.619291,0
33730,0.708784,0.4479,-0.64295,0
33750,0.715454,0.445256,-0.66481,0
33770,0.720301,0.434722,-0.68468,0
33790,0.708377,0.413894,-0.701904,0
33810,0.693356,0.386466,-0.720884,0
33830,0.691503,0.356929,-0.739028,0
33850,0.700209,0.326089,-0.757371,0
33870,0.714077,0.296297,-0.774872,0
33890,0.718509,0.263568,-0.790638,0
33910,0.717573,0.234849,-0.794098,0
33930,0.695653,0.225308,-0.798203,0
33950,0.672918,0.229933,-0.800537,0
33970,0.658305,0.230169,-0.800703,0
33990,0.644155,0.226,-0.803831,0
34010,0.651195,0.214109,-0.805686,0
34030,0.677668,0.213573,-0.812529,0
34050,0.691104,0.220943,-0.826586,0
34070,0.691465,0.218821,-0.83382,0
34090,0.679043,0.214008,-0.836145,0
34110,0.66868,0.210812,-0.83952,0
34130,0.665271,0.209688,-0.846181,0
34150,0.667024,0.209727,-0.851798,0
34170,0.668746,0.209549,-0.855978,0
34190,0.67155,0.209158,-0.858737,0
34210,0.673708,0.208796,-0.860852,0
34230,0.673589,0.208381,-0.86289,0
34250,0.672091,0.208009,-0.864514,0
34270,0.670535,0.208297,-0.865332,0
34290,0.66967,0.208718,-0.865759,0
34310,0.673192,0.208719,-0.866662,0
34330,0.676954,0.207624,-0.867817,0
34350,0.678553,0.206351,-0.868302,0
34370,0.678574,0.205273,-0.86806,0
34390,0.678272,0.20396,-0.868291,0
34400,0.677502,0.20322,-0.86922,0
34430,0.675202,0.202639,-0.870283,0
34450,0.672349,0.20266,-0.871413,0
34470,0.665411,0.197769,-0.873048,0
34490,0.661569,0.219415,-0.874923,0
34510,0.656906,0.228698,-0.877932,0
34530,0.66407,0.248143,-0.878102,0
34550,0.67071,0.24232,-0.877467,0
34570,0.660989,0.221887,-0.879123,0
34590,0.658994,0.233569,-0.880565,0
34610,0.654514,0.243221,-0.881825,0
34630,0.659015,0.243481,-0.883544,0
34650,0.659666,0.242063,-0.884132,0
34670,0.659386,0.24065,-0.88407,0
34690,0.659653,0.239769,-0.884071,0
34710,0.661521,0.239145,-0.884301,0
34730,0.664003,0.237556,-0.884311,0
34750,0.656528,0.22977,-0.885954,0
34770,0.657816,0.235405,-0.885677,0
34790,0.664797,0.225994,-0.885866,0
34810,0.663745,0.224931,-0.887732,0
34830,0.662837,0.224082,-0.888513,0
34850,0.662048,0.223654,-0.889196,0
34870,0.661925,0.222996,-0.889814,0
34890,0.662208,0.221816,-0.890763,0
34910,0.662457,0.220029,-0.891312,0
34930,0.662323,0.218708,-0.891682,0
34950,0.662464,0.217774,-0.89169,0
34970,0.66238,0.217615,-0.891722,0
34990,0.663649,0.217135,-0.891813,0
35010,0.663822,0.216766,-0.892071,0
35030,0.662877,0.216297,-0.892447,0
35050,0.661415,0.21597,-0.892738,0
35070,0.660579,0.215569,-0.892815,0
35090,0.660625,0.215423,-0.8927,0
35110,0.661684,0.214847,-0.893539,0
35130,0.662263,0.213646,-0.894083,0
35150,0.661051,0.212487,-0.894503,0
35170,0.660337,0.211511,-0.894754,0
35190,0.660347,0.210826,-0.895076,0
35210,0.661665,0.210512,-0.895106,0
35220,0.663035,0.210095,-0.895172,0
35240,0.663214,0.210003,-0.895061,0
35260,0.662822,0.20931,-0.894986,0
35280,0.661979,0.208556,-0.894862,0
35300,0.661526,0.207917,-0.894868,0
35320,0.661521,0.207875,-0.894718,0
35340,0.661983,0.20725,-0.895091,0
35360,0.661948,0.206677,-0.895111,0
35380,0.661002,0.205855,-0.895285,0
35400,0.660136,0.204914,-0.895798,0
35420,0.660156,0.204002,-0.896375,0
35440,0.660311,0.202901,-0.897746,0
35460,0.659448,0.201406,-0.898999,0
35480,0.657973,0.200307,-0.899974,0
35500,0.657272,0.199364,-0.900643,0
35520,0.65844,0.197955,-0.901738,0
35540,0.659972,0.196401,-0.903039,0
35560,0.660491,0.194771,-0.904,0
35580,0.659952,0.193516,-0.90478,0
35600,0.658853,0.192587,-0.905732,0
35620,0.658134,0.191691,-0.906518,0
35640,0.657675,0.191173,-0.907209,0
35660,0.657408,0.191275,-0.907917,0
35680,0.656304,0.19151,-0.908489,0
35700,0.654707,0.191835,-0.908855,0
35720,0.653237,0.192491,-0.908856,0
35740,0.652109,0.193099,-0.909057,0
35760,0.651075,0.194038,-0.909128,0
35780,0.650068,0.194309,-0.908986,0
35800,0.649138,0.19411,-0.908985,0
35820,0.647847,0.19405,-0.909054,0
35840,0.646589,0.193982,-0.909157,0
35860,0.64532,0.193834,-0.90896,0
35880,0.644413,0.193859,-0.908742,0
35900,0.643942,0.194174,-0.908321,0
35920,0.643005,0.194525,-0.907851,0
35940,0.641687,0.194803,-0.907402,0
35960,0.640214,0.195703,-0.906898,0
35980,0.638769,0.196867,-0.906331,0
36000,0.637093,0.197595,-0.90601,0
36020,0.634902,0.197565,-0.905875,0
36040,0.632519,0.197441,-0.906221,0
36060,0.63046,0.197454,-0.906362,0
36080,0.627853,0.19724,-0.907157,0
36100,0.625144,0.196293,-0.907996,0
36120,0.620685,0.195188,-0.910077,0
36140,0.61473,0.193576,-0.912486,0
36160,0.607811,0.19135,-0.915454,0
36180,0.601525,0.187666,-0.918063,0
36200,0.59829,0.183054,-0.919414,0
36220,0.595348,0.17694,-0.920877,0
36240,0.592419,0.169807,-0.919676,0
36260,0.586598,0.161743,-0.918361,0
36280,0.578038,0.153924,-0.916073,0
36300,0.566137,0.14388,-0.913835,0
36320,0.55702,0.13473,-0.911934,0
36340,0.550356,0.128029,-0.913865,0
36360,0.541275,0.121317,-0.92114,0
36380,0.519091,0.112162,-0.928953,0
36400,0.487103,0.105503,-0.931073,0
36420,0.456999,0.107074,-0.926427,0
36440,0.436594,0.118846,-0.921499,0
36460,0.42495,0.137258,-0.913702,0
36480,0.412109,0.159012,-0.900202,0
36500,0.389742,0.189363,-0.883712,0
36520,0.352865,0.221146,-0.86979,0
36540,0.303879,0.255982,-0.856553,0
36560,0.249874,0.285858,-0.842372,0
36580,0.198366,0.320106,-0.826002,0
36600,0.154739,0.35624,-0.810027,0
36620,0.119809,0.391022,-0.798769,0
36640,0.0824521,0.421959,-0.794309,0
36660,0.0388393,0.447437,-0.792478,0
36680,-0.00567675,0.468164,-0.790149,0
36700,-0.0501992,0.483079,-0.789836,0
36720,-0.0913764,0.495293,-0.799426,0
36740,-0.100404,0.499323,-0.814506,0
36760,-0.112263,0.504122,-0.818599,0
36780,-0.130919,0.492778,-0.82132,0
36800,-0.206764,0.481302,-0.930003,0
36820,-0.245459,0.437031,-0.957923,0
36840,-0.27419,0.400281,-0.936951,0
36860,-0.244928,0.456441,-0.934142,0
36880,-0.193753,0.513408,-0.885078,0
36900,-0.157676,0.558656,-0.863533,0
36920,-0.0914646,0.644703,-0.807952,0
36940,-0.0134016,0.775701,-0.75373,0
36960,-0.170567,0.780399,-0.922767,0
36980,-0.121105,0.299725,-0.736209,0
37000,0.0738824,0.432913,-0.5298,0
37020,0.225704,0.394867,-0.466247,0
37040,0.315454,0.376862,-0.409922,0
37060,0.383749,0.395994,-0.349483,0
37080,0.436863,0.440437,-0.317691,0
37100,0.473514,0.486707,-0.307682,0
37120,0.494577,0.499797,-0.303986,0
37140,0.52415,0.520226,-0.292807,0
37160,0.559617,0.530004,-0.285168,0
37180,0.60685,0.543072,-0.261124,0
37200,0.645514,0.571525,-0.240631,0
37220,0.681757,0.595053,-0.226497,0
37240,0.726939,0.585828,-0.212303,0
37260,0.785825,0.594894,-0.189703,0
37280,0.79816,0.610011,-0.227484,0
37300,0.7106,0.659622,-0.395007,0
37320,0.488855,0.619598,-0.672541,0
37340,0.3745,0.442498,-0.85451,0
37360,0.318276,0.262612,-0.860726,0
37380,0.353396,0.207265,-0.784914,0
37400,0.4483,0.129431,-0.73892,0
37420,0.483619,0.142268,-0.81548,0
37440,0.478676,0.167182,-0.888247,0
37460,0.516284,0.139657,-0.899653,0
37470,0.560261,0.119559,-0.929157,0
37480,0.620815,0.0862573,-0.94763,0
37500,0.609895,0.0837481,-0.942726,0
37520,0.588919,0.0979188,-0.935712,0
37560,0.536484,0.117184,-0.953751,0
37580,0.499246,0.120931,-0.932859,0
37600,0.4651,0.139085,-0.923256,0
37620,0.453318,0.139296,-0.939544,0
37640,0.490822,0.149335,-0.969023,0
37660,0.495855,0.169555,-1.00696,0
37680,0.468975,0.188949,-1.09035,0
37700,0.442666,0.215401,-1.18155,0
37720,0.422518,0.245824,-1.25142,0
37740,0.411581,0.269952,-1.36358,0
37760,0.376584,0.31234,-1.51561,0
37780,0.334755,0.363245,-1.66116,0
37800,0.301902,0.413867,-1.79115,0
37820,0.233408,0.425617,-1.94907,0
37840,0.159205,0.416558,-2.09081,0
37860,0.111982,0.401004,-2.18791,0
37870,0.0938781,0.394043,-2.25691,0
37890,0.0826523,0.358953,-2.33043,0
37910,0.0524664,0.336434,-2.43003,0
37930,0.0208777,0.287585,-2.52771,0
37950,-0.015126,0.186378,-2.59262,0
37970,-0.0831318,0.11875,-2.56703,0
37990,-0.0986899,0.0902445,-2.58921,0
38010,-0.105431,0.0850905,-2.72404,0
38030,-0.147338,0.0574473,-2.84819,0
38050,-0.20202,0.0503247,-2.93546,0
38070,-0.196467,0.0174559,-2.95378,0
38090,-0.145149,-0.0349229,-2.95973,0
38110,-0.140516,-0.0474469,-2.89345,0
38130,-0.181582,-0.034566,-2.8202,0
38150,-0.29891,-0.0680153,-2.8106,0
38170,-0.402669,-0.0713897,-2.86298,0
38190,-0.343314,-0.155054,-2.83082,0
38210,-0.25438,-0.232984,-2.82454,0
38230,-0.201448,-0.282406,-2.82101,0
38250,-0.134075,-0.327186,-2.83028,0
38270,-0.0650406,-0.395367,-2.83433,0
38290,0.0157438,-0.47187,-2.87568,0
38310,0.0996039,-0.527282,-2.958,0
38330,0.171464,-0.564763,-3.01153,0
38350,0.240948,-0.595241,-3.01602,0
38370,0.354349,-0.611944,-3.11241,0
38390,0.47379,-0.610002,3.0461,0
38410,0.427379,-0.675765,3.10341,0
38430,0.482765,-0.714662,3.0579,0
38450,0.50674,-0.73881,3.03695,0
38470,0.491871,-0.769909,3.0108,0
38490,0.49837,-0.821709,2.9537,0
38510,0.502524,-0.843494,2.90225,0
38530,0.54098,-0.906645,2.81717,0
38550,0.531536,-0.986403,2.79136,0
38570,0.558634,-1.01852,2.74941,0
38590,0.581194,-1.05581,2.70846,0
38610,0.604696,-1.08661,2.67092,0
38630,0.627492,-1.10943,2.61503,0
38650,0.69021,-1.13494,2.51055,0
38670,0.635033,-1.13554,2.53046,0
38690,0.61296,-1.12906,2.60682,0
38710,0.60291,-1.05916,2.60926,0
38730,0.339383,-0.959369,2.86122,0
38750,0.291812,-0.874525,2.82367,0
38770,0.29783,-0.861426,2.74257,0
38790,0.342109,-0.904206,2.75694,0
38810,0.278666,-0.960154,2.71141,0
38830,0.362677,-0.790267,2.62833,0
38850,0.270945,-0.701487,2.715,0
38870,0.252481,-0.691273,2.71084,0
38890,0.254819,-0.651158,2.69094,0
38910,0.249052,-0.630428,2.68439,0
38930,0.246285,-0.60807,2.66856,0
38950,0.23454,-0.586987,2.65385,0
38970,0.220245,-0.565355,2.65758,0
38990,0.209047,-0.542555,2.67686,0
39010,0.195675,-0.528248,2.69824,0
39030,0.184316,-0.523738,2.71895,0
39050,0.181503,-0.504389,2.7373,0
39070,0.176165,-0.48591,2.75377,0
39090,0.181707,-0.471661,2.75405,0
39110,0.176459,-0.452719,2.74827,0
39130,0.179952,-0.422954,2.74096,0
39150,0.184639,-0.395001,2.73262,0
39170,0.193979,-0.364544,2.73482,0
39190,0.197769,-0.342882,2.73876,0
39210,0.204547,-0.332529,2.73835,0
39230,0.20788,-0.322372,2.74041,0
39250,0.211577,-0.31603,2.74656,0
39270,0.217664,-0.315014,2.75289,0
39290,0.222974,-0.309339,2.75741,0
39310,0.218002,-0.302552,2.76771,0
39330,0.212231,-0.298026,2.78135,0
39350,0.217932,-0.298039,2.799,0
39370,0.228414,-0.303166,2.81535,0
39390,0.235343,-0.310434,2.83362,0
39410,0.232087,-0.316316,2.86072,0
39430,0.226872,-0.320301,2.89392,0
39450,0.196021,-0.324077,2.92032,0
39470,0.135483,-0.318105,2.9423,0
39490,0.0251122,-0.310875,2.95418,0
39510,-0.0994651,-0.310182,2.95556,0
39530,-0.220918,-0.312824,2.95373,0
39550,-0.325745,-0.310953,2.95987,0
39570,-0.386332,-0.3015,2.95771,0
39590,-0.397764,-0.293085,2.947,0
39610,-0.371917,-0.287775,2.92793,0
39630,-0.325848,-0.277018,2.89884,0
39650,-0.259136,-0.269402,2.85686,0
39670,-0.195665,-0.260115,2.81658,0
39690,-0.153523,-0.247916,2.78298,0
39710,-0.146054,-0.233232,2.7542,0
39730,-0.15987,-0.218932,2.72668,0
39750,-0.175802,-0.203076,2.70374,0
39770,-0.175409,-0.187785,2.6884,0
39790,-0.157168,-0.178996,2.67997,0
39810,-0.139626,-0.174704,2.67371,0
39830,-0.132446,-0.174262,2.66735,0
39850,-0.131264,-0.175954,2.66184,0
39870,-0.131337,-0.1784,2.6587,0
39890,-0.126905,-0.182033,2.6535,0
39910,-0.113715,-0.186367,2.64273,0
39930,-0.0923433,-0.18927,2.63245,0
39950,-0.0644087,-0.193142,2.6264,0
39970,-0.0374737,-0.19953,2.62108,0
39990,-0.0172661,-0.205163,2.61437,0
40010,-0.000299937,-0.21054,2.6083,0
40030,0.0169397,-0.215992,2.60401,0
40050,0.0340928,-0.221008,2.6009,0
40070,0.0406865,-0.233914,2.59731,0
40090,0.0245497,-0.22614,2.59665,0
40110,0.0341365,-0.210391,2.60253,0
40130,0.0623374,-0.205107,2.60698,0
40150,0.0948449,-0.203525,2.61026,0
40170,0.113672,-0.204423,2.60799,0
40190,0.128309,-0.202787,2.60409,0
40210,0.137615,-0.200025,2.60392,0
40230,0.140849,-0.193386,2.60373,0
40250,0.143444,-0.186267,2.6002,0
40270,0.14188,-0.177606,2.59434,0
40290,0.134748,-0.167301,2.58552,0
40310,0.123905,-0.155246,2.57561,0
40330,0.108717,-0.139562,2.56505,0
40350,0.0883593,-0.121195,2.55358,0
40370,0.0767309,-0.100227,2.54118,0
40390,0.0860144,-0.0718977,2.52967,0
40410,0.0965178,-0.0476845,2.52342,0
40430,0.108594,-0.0299677,2.51811,0
40450,0.110587,-0.0157724,2.51204,0
40470,0.107294,-0.000106081,2.50446,0
40480,0.10587,0.0153187,2.49869,0
40500,0.106379,0.0320357,2.49332,0
40520,0.107108,0.0543812,2.48842,0
40540,0.103731,0.0772769,2.47989,0
40560,0.0998372,0.100932,2.47335,0
40580,0.0998297,0.120793,2.46346,0
40600,0.106109,0.13914,2.45481,0
40620,0.115331,0.157443,2.44685,0
40640,0.124775,0.172309,2.43637,0
40660,0.137163,0.182521,2.42388,0
40680,0.140002,0.195856,2.41101,0
40700,0.124366,0.20448,2.39951,0
40720,0.105631,0.215621,2.3915,0
40740,0.083078,0.23123,2.38167,0
40760,0.0510759,0.239797,2.36883,0
40780,0.0191517,0.250758,2.35384,0
40800,0.0184884,0.252788,2.35312,0
40820,0.0482117,0.251859,2.35872,0
40840,0.0745366,0.245475,2.36831,0
40860,0.0802397,0.226504,2.38645,0
40880,0.0723168,0.198343,2.41189,0
40900,0.0608431,0.160509,2.43746,0
40920,0.0489603,0.121601,2.4623,0
40940,0.0380072,0.081027,2.49021,0
40960,0.0266898,0.0396595,2.52378,0
40980,0.0112245,-0.000465252,2.56035,0
41000,-0.00891446,-0.0384809,2.59769,0
41020,-0.0344263,-0.0717417,2.63923,0
41040,-0.0647586,-0.100258,2.687,0
41060,-0.0994904,-0.121045,2.74065,0
41080,-0.126091,-0.132275,2.79697,0
41100,-0.139057,-0.137156,2.8483,0
41120,-0.14854,-0.136015,2.89548,0
41140,-0.156542,-0.128628,2.93894,0
41160,-0.161292,-0.128014,2.9717,0
41180,-0.153403,-0.126559,2.98678,0
41200,-0.133918,-0.125534,2.98903,0
41220,-0.113157,-0.124551,2.98594,0
41240,-0.0959327,-0.130641,2.97905,0
41260,-0.093298,-0.148043,2.95031,0
41280,-0.103133,-0.172808,2.9174,0
41300,-0.109835,-0.192545,2.89049,0
41320,-0.0933949,-0.211849,2.86721,0
41340,-0.0586572,-0.226803,2.84152,0
41360,-0.0275555,-0.237173,2.82273,0
41380,-0.00352123,-0.243258,2.81136,0
41400,0.00511146,-0.245801,2.80447,0
41420,-0.00690825,-0.248839,2.79993,0
41440,-0.0297813,-0.254242,2.79849,0
41460,-0.0506244,-0.259842,2.79985,0
41480,-0.0646188,-0.263544,2.80465,0
41500,-0.0682478,-0.264498,2.80984,0
41520,-0.0652969,-0.264154,2.81371,0
41540,-0.0615452,-0.263528,2.81584,0
41560,-0.0591534,-0.262827,2.81678,0
41580,-0.0578767,-0.262717,2.8174,0
41600,-0.0578876,-0.262544,2.81825,0
41620,-0.0584482,-0.262452,2.81959,0
41640,-0.0581498,-0.262443,2.82116,0
41660,-0.0568515,-0.262476,2.82375,0
41680,-0.0556138,-0.262208,2.82742,0
41700,-0.0553329,-0.262352,2.83126,0
41720,-0.055394,-0.26257,2.83492,0
41740,-0.055782,-0.262916,2.83934,0
41760,-0.0565756,-0.263427,2.84417,0
41780,-0.0574502,-0.264002,2.84775,0
41800,-0.0569515,-0.264039,2.85069,0
41820,-0.0549063,-0.263714,2.8538,0
41840,-0.0523923,-0.263905,2.85769,0
41860,-0.050891,-0.264365,2.86198,0
41880,-0.0511512,-0.265076,2.86665,0
41900,-0.0524043,-0.265437,2.87092,0
41920,-0.0529882,-0.265726,2.87474,0
41940,-0.0520761,-0.265574,2.87809,0
41960,-0.0506817,-0.265355,2.88149,0
41980,-0.0500398,-0.26516,2.88401,0
42000,-0.0502899,-0.264875,2.88566,0
42020,-0.0494661,-0.264844,2.88693,0
42040,-0.0472465,-0.265241,2.88839,0
42060,-0.0439211,-0.266248,2.88957,0
42080,-0.0406822,-0.267682,2.88991,0
42100,-0.0374361,-0.268654,2.88882,0
42120,-0.0341414,-0.268869,2.88854,0
42140,-0.0310978,-0.26892,2.88998,0
42160,-0.0299144,-0.269701,2.89208,0
42180,-0.0303164,-0.270682,2.89412,0
42200,-0.0312032,-0.271953,2.89632,0
42220,-0.0314152,-0.272906,2.89874,0
42240,-0.0308426,-0.273759,2.90076,0
42260,-0.0301095,-0.274392,2.9014,0
42280,-0.0287855,-0.274845,2.90119,0
42300,-0.0271131,-0.275307,2.90026,0
42320,-0.0257702,-0.275667,2.89893,0
42340,-0.0243631,-0.276282,2.89737,0
42360,-0.0224485,-0.27647,2.89536,0
42380,-0.0202657,-0.276604,2.89406,0
42400,-0.0174126,-0.27701,2.89355,0
42420,-0.0156097,-0.277553,2.89268,0
42440,-0.0147194,-0.277466,2.89156,0
42460,-0.0135925,-0.277081,2.89115,0
42480,-0.0125398,-0.276822,2.89139,0
42500,-0.0120119,-0.27713,2.89145,0
42520,-0.0115954,-0.2777,2.89165,0
42540,-0.0114143,-0.278654,2.89209,0
42560,-0.0110453,-0.279968,2.8924,0
42580,-0.010407,-0.281133,2.89243,0
42600,-0.00967435,-0.282033,2.89243,0
42620,-0.00922448,-0.282836,2.89259,0
42640,-0.00978479,-0.283397,2.89265,0
42660,-0.0109068,-0.283416,2.89269,0
42680,-0.0110807,-0.283075,2.89275,0
42700,-0.0102032,-0.282703,2.89325,0
42720,-0.012165,-0.282783,2.89488,0
42740,-0.013097,-0.28197,2.89725,0
42760,-0.00927443,-0.2811,2.89847,0
42780,-0.00495594,-0.280451,2.89811,0
42800,-0.00149882,-0.279175,2.89715,0
42820,0.00118964,-0.277987,2.89642,0
42840,0.00296836,-0.276903,2.89606,0
42860,0.00420018,-0.276624,2.89588,0
42880,0.00552516,-0.277094,2.89571,0
42900,0.00607624,-0.278263,2.89546,0
42920,0.00669426,-0.279684,2.89498,0
42940,0.00693468,-0.281399,2.89479,0
42960,0.00640136,-0.282587,2.89434,0
42980,0.00558536,-0.283575,2.89396,0
43000,0.00447448,-0.284201,2.89358,0
43020,0.00370087,-0.284691,2.89335,0
43040,0.0041135,-0.28463,2.893,0
43060,0.00463759,-0.284201,2.89244,0
43080,0.00472564,-0.283091,2.89173,0
43100,0.00511629,-0.281926,2.89144,0
43120,0.00523361,-0.281159,2.89168,0
43130,0.00524943,-0.281284,2.89168,0
43150,0.004927,-0.281431,2.89233,0
43170,0.00466326,-0.282323,2.89322,0
43190,0.0044343,-0.283218,2.89388,0
43210,0.00426479,-0.283856,2.89388,0
43230,0.00383226,-0.284172,2.89371,0
43250,0.00333056,-0.284492,2.89316,0
43270,0.00295832,-0.28455,2.89234,0
43290,0.00258827,-0.284487,2.89139,0
43310,0.00250338,-0.284261,2.89092,0
43330,0.00275709,-0.283849,2.89139,0
43350,0.00221023,-0.283401,2.89221,0
43370,0.00182219,-0.283065,2.89289,0
43390,0.00184463,-0.282686,2.89328,0
43410,0.00184463,-0.282686,2.89328,0
43430,0.00196951,-0.282671,2.89326,0
43450,0.00196951,-0.282671,2.89326,0
43470,0.00182032,-0.283053,2.89377,0
43490,0.00209447,-0.283745,2.89418,0
43510,0.00224598,-0.284225,2.89441,0
43530,0.00202493,-0.284629,2.89458,0
43550,0.00209403,-0.284865,2.89429,0
43570,0.00227278,-0.284856,2.89391,0
43590,0.00209673,-0.284877,2.89342,0
43610,0.00206371,-0.284781,2.89271,0
43630,0.00253202,-0.284468,2.89263,0
43650,0.00312516,-0.28414,2.89253,0
43670,0.00299313,-0.283435,2.89198,0
43690,0.00318994,-0.28229,2.89132,0
43710,0.00421468,-0.28154,2.89132,0
43730,0.00435722,-0.281526,2.89118,0
43750,0.00437305,-0.281651,2.89118,0
43770,0.00480306,-0.2827,2.8917,0
43790,0.00540698,-0.283986,2.89209,0
43810,0.00583487,-0.285188,2.8919,0
43830,0.00575595,-0.285941,2.89137,0
43850,0.00544586,-0.286622,2.89068,0
43870,0.0048565,-0.286962,2.8899,0
43890,0.00475331,-0.286991,2.88892,0
43910,0.0051664,-0.286825,2.8885,0
43930,0.00582974,-0.286474,2.88875,0
43950,0.00618716,-0.286167,2.88945,0
43970,0.00592222,-0.285817,2.89011,0
43990,0.00530495,-0.285269,2.89046,0
44010,0.00532632,-0.284891,2.89085,0
44030,0.00547274,-0.284497,2.89122,0
44050,0.00577591,-0.284337,2.89157,0
44070,0.00609265,-0.284531,2.89212,0
44090,0.00622698,-0.285009,2.89248,0
44110,0.00607824,-0.285526,2.89223,0
44130,0.00619755,-0.286014,2.89183,0
44150,0.00660313,-0.286473,2.89115,0
44170,0.00696121,-0.286558,2.89046,0
44190,0.00721456,-0.286537,2.88955,0
44210,0.00719794,-0.286669,2.88892,0
44230,0.007073,-0.286685,2.88893,0
44250,0.007073,-0.286685,2.88893,0
44270,0.00685987,-0.286463,2.88936,0
44290,0.00641277,-0.286503,2.8899,0
44310,0.0058611,-0.286332,2.89014,0
44330,0.00531141,-0.286143,2.89033,0
44350,0.00524578,-0.285662,2.89037,0
44370,0.00504128,-0.285053,2.89038,0
44390,0.00510261,-0.284432,2.89027,0
44410,0.00468419,-0.283859,2.89008,0
44430,0.00386938,-0.283472,2.89023,0
44450,0.00319546,-0.283299,2.89044,0
44470,0.00284072,-0.28309,2.891,0
44490,0.00225621,-0.282792,2.89135,0
44510,0.00184806,-0.282712,2.89153,0
44530,0.00131509,-0.282647,2.89172,0
44550,0.000889249,-0.282565,2.89201,0
44570,0.000873562,-0.28244,2.89201,0
44590,0.000998422,-0.282425,2.89199,0
44610,0.000996258,-0.282442,2.89204,0
44630,0.000996258,-0.282442,2.89204,0
44650,0.00108518,-0.282558,2.89151,0
44670,0.00152895,-0.282747,2.89117,0
44690,0.00198444,-0.283202,2.89101,0
44710,0.00231935,-0.283531,2.89069,0
44730,0.00263241,-0.284,2.89066,0
44750,0.00317951,-0.284416,2.89067,0
44770,0.00366933,-0.285103,2.89046,0
44790,0.00379425,-0.285087,2.89044,0
44810,0.00366933,-0.285103,2.89046,0
44830,0.00366933,-0.285103,2.89046,0
44850,0.00366933,-0.285103,2.89046,0
44870,0.00366933,-0.285103,2.89046,0
44890,0.00366933,-0.285103,2.89046,0
44910,0.00366933,-0.285103,2.89046,0
44930,0.00379425,-0.285087,2.89044,0
44950,0.00379425,-0.285087,2.89044,0
44970,0.00379425,-0.285087,2.89044,0
44990,0.00379425,-0.285087,2.89044,0
45010,0.00438914,-0.285879,2.89045,0
45030,0.00440503,-0.286004,2.89045,0
45050,0.00434366,-0.286519,2.89048,0
45070,0.00430237,-0.287019,2.89034,0
45090,0.00402932,-0.287552,2.89011,0
45110,0.00400856,-0.287931,2.88973,0
45130,0.00420176,-0.288169,2.88947,0
45150,0.00457453,-0.288245,2.88954,0
45170,0.00457453,-0.288245,2.88954,0
45190,0.00493572,-0.287949,2.88936,0
45210,0.00543564,-0.287886,2.88928,0
45230,0.00595157,-0.287948,2.88921,0
45250,0.00596759,-0.288073,2.88921,0
45270,0.00596759,-0.288073,2.88921,0
45290,0.00598361,-0.288198,2.88921,0
45310,0.00598361,-0.288198,2.88921,0
45330,0.00598361,-0.288198,2.88921,0
45350,0.0058744,-0.288444,2.88931,0
45370,0.00578143,-0.288709,2.88933,0
45390,0.00578143,-0.288709,2.88933,0
45410,0.00631127,-0.289019,2.88938,0
45430,0.00643628,-0.289004,2.88937,0
45450,0.00643628,-0.289004,2.88937,0
45470,0.00643628,-0.289004,2.88937,0
45490,0.00643628,-0.289004,2.88937,0
45510,0.00645231,-0.289129,2.88937,0
45530,0.00645231,-0.289129,2.88937,0
45550,0.00645231,-0.289129,2.88937,0
45570,0.00645231,-0.289129,2.88937,0
45590,0.00657732,-0.289113,2.88935,0
45610,0.00659335,-0.289238,2.88935,0
45630,0.00659335,-0.289238,2.88935,0
45650,0.00659335,-0.289238,2.88935,0
45670,0.00659335,-0.289238,2.88935,0
45690,0.00671837,-0.289222,2.88933,0
45710,0.00659335,-0.289238,2.88935,0
45730,0.00673441,-0.289347,2.88933,0
45750,0.00675268,-0.289349,2.88921,0
45760,0.00660939,-0.289363,2.88935,0
45780,0.00660939,-0.289363,2.88935,0
45800,0.00675457,-0.289331,2.88917,0
45820,0.00675457,-0.289331,2.88917,0
45840,0.00675457,-0.289331,2.88917,0
45860,0.00677062,-0.289456,2.88917,0
45880,0.00677062,-0.289456,2.88917,0
45900,0.00677062,-0.289456,2.88917,0
45920,0.00677062,-0.289456,2.88917,0
45940,0.00677062,-0.289456,2.88917,0
45960,0.00675234,-0.289454,2.88929,0
45980,0.00677062,-0.289456,2.88917,0
46000,0.00677062,-0.289456,2.88917,0
46020,0.00677062,-0.289456,2.88917,0
46040,0.00677062,-0.289456,2.88917,0
46060,0.00677062,-0.289456,2.88917,0
46080,0.00677062,-0.289456,2.88917,0
46100,0.00677062,-0.289456,2.88917,0
46120,0.00678667,-0.289581,2.88917,0
46140,0.00677062,-0.289456,2.88917,0
46160,0.00678667,-0.289581,2.88917,0
46180,0.00677062,-0.289456,2.88917,0
46200,0.00677062,-0.289456,2.88917,0
46220,0.00677062,-0.289456,2.88917,0
46240,0.00677062,-0.289456,2.88917,0
46260,0.00677062,-0.289456,2.88917,0
46280,0.00662733,-0.28947,2.88931,0
46300,0.00676839,-0.289579,2.88929,0
46320,0.00664337,-0.289595,2.88931,0
46340,0.00664337,-0.289595,2.88931,0
46360,0.00664337,-0.289595,2.88931,0
46380,0.00664337,-0.289595,2.88931,0
46400,0.00665941,-0.28972,2.88931,0
46420,0.00665941,-0.28972,2.88931,0
46440,0.00665941,-0.28972,2.88931,0
46460,0.00665941,-0.28972,2.88931,0
46480,0.00665941,-0.28972,2.88931,0
46500,0.00665941,-0.28972,2.88931,0
46520,0.00665941,-0.28972,2.88931,0
46540,0.00704828,-0.289921,2.88938,0
46560,0.00704828,-0.289921,2.88938,0
46580,0.00706433,-0.290046,2.88938,0
46600,0.00717785,-0.290646,2.88998,0
46620,0.00780494,-0.291432,2.89062,0
46640,0.00867867,-0.292415,2.89143,0
46660,0.00956594,-0.293544,2.89229,0
46680,0.0106245,-0.295138,2.8932,0
46700,0.0119556,-0.297326,2.89445,0
46720,0.0139416,-0.299795,2.89569,0
46740,0.0161535,-0.302757,2.89666,0
46760,0.0189549,-0.306023,2.89727,0
46780,0.022137,-0.309626,2.89729,0
46800,0.0256316,-0.313309,2.89699,0
46820,0.029994,-0.317388,2.89626,0
46840,0.0347977,-0.321676,2.89533,0
46860,0.0402401,-0.326012,2.89364,0
46880,0.0462387,-0.330516,2.89181,0
46900,0.0522783,-0.335018,2.88982,0
46920,0.0574169,-0.339373,2.88796,0
46940,0.0635325,-0.34298,2.88644,0
46960,0.0723849,-0.346511,2.88432,0
46980,0.0826663,-0.349694,2.88101,0
47000,0.0937332,-0.352357,2.87655,0
47020,0.104285,-0.355038,2.87164,0
47040,0.114333,-0.35736,2.86596,0
47060,0.124126,-0.359129,2.85932,0
47080,0.133991,-0.360291,2.85191,0
47100,0.143707,-0.360795,2.84424,0
47120,0.153082,-0.360643,2.83652,0
47140,0.162452,-0.359595,2.82943,0
47160,0.170552,-0.35705,2.82296,0
47180,0.176719,-0.353555,2.81721,0
47200,0.181339,-0.348766,2.81223,0
47220,0.184592,-0.343066,2.8081,0
47240,0.1873,-0.336492,2.80466,0
47260,0.189724,-0.329446,2.80141,0
47280,0.192806,-0.320578,2.79885,0
47300,0.195116,-0.310029,2.79796,0
47320,0.195883,-0.295524,2.79968,0
47340,0.205862,-0.272107,2.80101,0
47360,0.239397,-0.242833,2.78791,0
47380,0.268866,-0.213749,2.76932,0
47400,0.290579,-0.187357,2.75479,0
47420,0.316227,-0.158646,2.74104,0
47440,0.334582,-0.127966,2.72386,0
47460,0.345102,-0.0962995,2.69951,0
47480,0.357611,-0.0597095,2.67104,0
47500,0.37544,-0.0167156,2.63941,0
47520,0.394529,0.033362,2.6061,0
47540,0.415151,0.0915379,2.5713,0
47560,0.433893,0.158377,2.53405,0
47580,0.448738,0.234191,2.49342,0
47600,0.464178,0.308668,2.446,0
47620,0.465632,0.383022,2.39764,0
47640,0.464283,0.455295,2.35572,0
47660,0.466108,0.52684,2.31224,0
47680,0.457253,0.595258,2.26375,0
47700,0.42387,0.658887,2.2074,0
47720,0.371375,0.720688,2.14431,0
47740,0.314093,0.783603,2.07633,0
47760,0.262285,0.845254,2.00828,0
47780,0.205569,0.905081,1.93461,0
47800,0.128468,0.960541,1.84642,0
47820,0.0301309,1.00989,1.74283,0
47840,-0.0777342,1.05373,1.63276,0
47860,-0.188072,1.09175,1.51953,0
47880,-0.30065,1.12359,1.40489,0
47900,-0.419853,1.1468,1.28799,0
47920,-0.543681,1.16033,1.17408,0
47940,-0.658151,1.17224,1.07443,0
47960,-0.751137,1.17878,0.998154,0
47980,-0.822203,1.18289,0.942252,0
48000,-0.871389,1.18508,0.904707,0
48020,-0.897916,1.18613,0.887081,0
48040,-0.90451,1.18705,0.885507,0
48060,-0.894954,1.18782,0.895408,0
48080,-0.875597,1.18943,0.913384,0
48100,-0.853825,1.19138,0.934849,0
48120,-0.834995,1.19279,0.956821,0
48140,-0.818117,1.19315,0.979674,0
48160,-0.80084,1.19353,1.00456,0
48180,-0.783346,1.19381,1.03078,0
48200,-0.763923,1.19412,1.06045,0
48220,-0.743478,1.19491,1.09295,0
48240,-0.71938,1.1955,1.12889,0
48260,-0.688287,1.19711,1.17042,0
48280,-0.652344,1.19891,1.21536,0
48300,-0.609598,1.2001,1.26798,0
48320,-0.564596,1.19973,1.32284,0
48340,-0.519291,1.19871,1.37968,0
48360,-0.470018,1.19546,1.44104,0
48380,-0.412207,1.19008,1.50886,0
48400,-0.34724,1.18248,1.58124,0
48410,-0.275139,1.17246,1.66091,0
48430,-0.201575,1.15901,1.74414,0
48450,-0.13413,1.14201,1.82404,0
48470,-0.0745781,1.12198,1.89981,0
48490,-0.0207662,1.09972,1.97074,0
48510,0.0291798,1.07544,2.03815,0
48530,0.0765489,1.04808,2.10182,0
48550,0.119903,1.01669,2.16099,0
48570,0.159842,0.97731,2.21831,0
48590,0.196319,0.931797,2.2738,0
48610,0.229222,0.880433,2.32662,0
48630,0.26019,0.823876,2.37646,0
48650,0.287277,0.761642,2.42192,0
48670,0.312543,0.695091,2.46453,0
48690,0.333212,0.626356,2.50181,0
48710,0.348641,0.55313,2.53301,0
48730,0.360984,0.477329,2.55591,0
48750,0.373417,0.398055,2.57242,0
48770,0.393603,0.317103,2.58441,0
48790,0.425008,0.232853,2.59665,0
48810,0.466669,0.151061,2.60538,0
48830,0.508887,0.0725595,2.61228,0
48850,0.549913,0.00299642,2.61499,0
48870,0.587694,-0.0559366,2.61548,0
48890,0.61584,-0.103351,2.6121,0
48910,0.633736,-0.13823,2.60534,0
48930,0.642809,-0.161946,2.59763,0
48950,0.648038,-0.176021,2.59024,0
48970,0.653883,-0.182028,2.58822,0
48990,0.666577,-0.181247,2.58825,0
49010,0.681106,-0.17519,2.5906,0
49030,0.692714,-0.16645,2.59364,0
49050,0.698213,-0.153859,2.59678,0
49070,0.69959,-0.136852,2.59943,0
49090,0.697944,-0.116234,2.59953,0
49110,0.69438,-0.0936636,2.59676,0
49130,0.689111,-0.0699041,2.59219,0
49150,0.684371,-0.0456076,2.58977,0
49170,0.684835,-0.0220819,2.58847,0
49190,0.691684,0.0024427,2.58603,0
49210,0.691839,0.0274055,2.57944,0
49230,0.682755,0.0517731,2.56799,0
49250,0.668486,0.0768446,2.55264,0
49270,0.653633,0.101582,2.53658,0
49290,0.641245,0.126671,2.51962,0
49310,0.627529,0.151918,2.50146,0
49330,0.606754,0.177561,2.4794,0
49350,0.576318,0.204093,2.45394,0
49370,0.54308,0.22928,2.42768,0
49390,0.509136,0.254421,2.40181,0
49410,0.477534,0.278011,2.38397,0
49430,0.454665,0.30379,2.37793,0
49450,0.439226,0.333107,2.37267,0
49470,0.425396,0.364586,2.36536,0
49490,0.40628,0.392855,2.3568,0
49510,0.38984,0.414153,2.35059,0
49530,0.386633,0.430326,2.34673,0
49550,0.400677,0.445068,2.34144,0
49570,0.419846,0.458442,2.33501,0
49590,0.425739,0.469102,2.32546,0
49610,0.419598,0.475701,2.31335,0
49630,0.41647,0.47796,2.30349,0
49650,0.423206,0.477653,2.29573,0
49670,0.436361,0.476201,2.28873,0
49690,0.446392,0.47239,2.2819,0
49710,0.449387,0.467362,2.27482,0
49730,0.446344,0.462043,2.26787,0
49750,0.443286,0.456271,2.26249,0
49770,0.443151,0.450454,2.2589,0
49790,0.443517,0.445703,2.25579,0
49810,0.442051,0.442472,2.25266,0
49830,0.440177,0.440647,2.24977,0
49850,0.438915,0.440211,2.24737,0
49870,0.436812,0.439158,2.24548,0
49890,0.433216,0.437231,2.24226,0
49910,0.431311,0.432997,2.23849,0
49930,0.43034,0.42655,2.23399,0
49950,0.432085,0.416946,2.22865,0
49970,0.436677,0.403799,2.22358,0
49990,0.442401,0.386809,2.21953,0
50010,0.45037,0.365043,2.21624,0
50030,0.462212,0.339315,2.21295,0
50050,0.475569,0.309486,2.21003,0
50070,0.485986,0.274703,2.20716,0
50090,0.490208,0.238592,2.2036,0
50110,0.490307,0.20148,2.2015,0
50130,0.490467,0.163066,2.19943,0
50150,0.495472,0.125778,2.19813,0
50170,0.504091,0.0904229,2.20022,0
50190,0.520903,0.0537383,2.20212,0
50210,0.54401,0.0152571,2.20422,0
50230,0.563273,-0.023702,2.20636,0
50250,0.574794,-0.0615117,2.20675,0
50270,0.58137,-0.096513,2.20695,0
50290,0.589044,-0.127523,2.20754,0
50310,0.596591,-0.155439,2.21079,0
50330,0.601756,-0.180585,2.21681,0
50350,0.603964,-0.201665,2.22391,0
50370,0.603475,-0.218602,2.23205,0
50390,0.600153,-0.231145,2.24029,0
50410,0.594474,-0.239803,2.24933,0
50430,0.586967,-0.245482,2.25803,0
50450,0.57634,-0.248828,2.26493,0
50470,0.562692,-0.249603,2.27028,0
50490,0.547496,-0.247911,2.27337,0
50510,0.532689,-0.24323,2.2747,0
50530,0.517651,-0.235676,2.27526,0
50550,0.503164,-0.226187,2.27277,0
50570,0.4876,-0.216355,2.26782,0
50590,0.47437,-0.206979,2.26332,0
50610,0.463076,-0.198288,2.26131,0
50630,0.455589,-0.18944,2.26206,0
50650,0.449099,-0.180139,2.26566,0
50670,0.438387,-0.168117,2.27131,0
50690,0.426703,-0.15166,2.27903,0
50710,0.414506,-0.133612,2.28479,0
50730,0.404722,-0.115619,2.28567,0
50750,0.396495,-0.0998031,2.28145,0
50770,0.391975,-0.0868224,2.27292,0
50790,0.39733,-0.0770972,2.2641,0
50810,0.410746,-0.0704505,2.2561,0
50830,0.424838,-0.0679931,2.24908,0
50850,0.431741,-0.0689563,2.2425,0
50870,0.430234,-0.0734279,2.23555,0
50890,0.423034,-0.0813648,2.22988,0
50910,0.414982,-0.0909676,2.22683,0
50930,0.4098,-0.100544,2.22493,0
50950,0.408745,-0.110144,2.22179,0
50970,0.40453,-0.117121,2.21557,0
50990,0.393977,-0.128623,2.20984,0
51010,0.38843,-0.139009,2.20678,0
51030,0.376072,-0.153076,2.20084,0
51040,0.366156,-0.16948,2.19834,0
51060,0.371176,-0.184718,2.197,0
51080,0.373638,-0.198953,2.19422,0
51100,0.369062,-0.210509,2.1926,0
51120,0.360674,-0.221087,2.19159,0
51140,0.350996,-0.229996,2.19131,0
51160,0.345001,-0.236753,2.19196,0
51180,0.342632,-0.24093,2.19333,0
51200,0.341803,-0.24266,2.19501,0
51220,0.340216,-0.242843,2.19717,0
51240,0.338723,-0.242365,2.20037,0
51260,0.337158,-0.241661,2.20359,0
51280,0.335363,-0.24162,2.20549,0
51300,0.334366,-0.243749,2.20631,0
51320,0.333704,-0.247703,2.20599,0
51340,0.331454,-0.254352,2.20628,0
51360,0.328438,-0.261826,2.20555,0
51380,0.326232,-0.270161,2.20452,0
51400,0.326067,-0.278866,2.20278,0
51420,0.326439,-0.286132,2.2007,0
51440,0.326005,-0.292607,2.19758,0
51460,0.327092,-0.296869,2.19412,0
51480,0.332366,-0.299891,2.19161,0
51500,0.339627,-0.300383,2.18961,0
51520,0.345106,-0.299622,2.18769,0
51540,0.348294,-0.297531,2.18542,0
51560,0.347808,-0.295016,2.18356,0
51580,0.344808,-0.292477,2.18202,0
51600,0.343017,-0.289387,2.18207,0
51620,0.342368,-0.28603,2.18245,0
51640,0.341721,-0.280481,2.18376,0
51660,0.340719,-0.275089,2.18601,0
51680,0.340753,-0.270096,2.18757,0
51700,0.341209,-0.265509,2.18818,0
51720,0.342402,-0.261917,2.18803,0
51740,0.344032,-0.258579,2.18836,0
51760,0.346628,-0.255355,2.18897,0
51780,0.35008,-0.252383,2.18936,0
51800,0.353602,-0.249875,2.19016,0
51820,0.356284,-0.24781,2.19127,0
51840,0.357972,-0.246178,2.19298,0
51860,0.359304,-0.24536,2.19519,0
51880,0.360547,-0.244238,2.19693,0
51900,0.361671,-0.243177,2.19746,0
51920,0.362212,-0.242137,2.19693,0
51940,0.361581,-0.241358,2.19609,0
51960,0.36026,-0.239337,2.1952,0
51980,0.359509,-0.236973,2.19485,0
52000,0.360572,-0.23465,2.19523,0
52020,0.360796,-0.232616,2.19572,0
52040,0.360364,-0.231178,2.19613,0
52060,0.358138,-0.230475,2.19764,0
52080,0.35757,-0.229592,2.19962,0
52100,0.357537,-0.227758,2.20184,0
52120,0.359061,-0.225812,2.20362,0
52140,0.361023,-0.223771,2.20514,0
52160,0.361446,-0.222735,2.20645,0
52180,0.362076,-0.222094,2.20717,0
52200,0.363117,-0.221756,2.20737,0
52220,0.364541,-0.221138,2.2069,0
52240,0.365173,-0.22035,2.2065,0
52260,0.365008,-0.220315,2.20665,0
52280,0.363091,-0.220248,2.20766,0
52300,0.360145,-0.219801,2.20947,0
52320,0.35746,-0.218852,2.21282,0
52340,0.355081,-0.218111,2.21673,0
52360,0.344276,-0.215854,2.21881,0
52380,0.327622,-0.208938,2.21675,0
52400,0.316114,-0.201091,2.21172,0
52420,0.310661,-0.197571,2.20106,0
52440,0.307648,-0.197205,2.18191,0
52460,0.30448,-0.197339,2.15339,0
52480,0.299249,-0.19691,2.12196,0
52500,0.302568,-0.19356,2.09313,0
52520,0.303848,-0.199763,2.06557,0
52540,0.287544,-0.203037,2.0425,0
52560,0.219199,-0.182103,2.03397,0
52580,0.105288,-0.149576,2.02973,0
52600,-0.0137827,-0.113514,2.01661,0
52620,-0.107877,-0.0861016,1.99894,0
52640,-0.166271,-0.0608664,1.98973,0
52660,-0.185106,-0.0301962,1.98693,0
52680,-0.160679,0.00698293,1.98024,0
52700,-0.127977,0.0466669,1.96373,0
52720,-0.107627,0.0854307,1.93384,0
52740,-0.107652,0.12722,1.89186,0
52760,-0.111564,0.172374,1.84607,0
52780,-0.106399,0.215873,1.80543,0
52800,-0.0844195,0.261565,1.77716,0
52820,-0.044334,0.308265,1.76339,0
52840,0.0116932,0.350918,1.759,0
52860,0.0724173,0.384373,1.75244,0
52880,0.117434,0.414575,1.73865,0
52900,0.150694,0.449874,1.72663,0
52920,0.18824,0.49588,1.72565,0
52940,0.240391,0.548749,1.73918,0
52960,0.285507,0.59501,1.76306,0
52980,0.296687,0.623909,1.79809,0
53000,0.269509,0.640691,1.83092,0
53020,0.217404,0.660001,1.86442,0
53040,0.16155,0.689324,1.90935,0
53060,0.120297,0.725651,1.96644,0
53080,0.116154,0.760696,2.02913,0
53100,0.139164,0.804024,2.08737,0
53120,0.140886,0.860301,2.13549,0
53140,0.0968678,0.915883,2.16747,0
53160,0.0230243,0.957932,2.19066,0
53180,-0.0349617,0.99125,2.22275,0
53200,-0.0284845,1.02319,2.27497,0
53220,0.0409863,1.05557,2.35305,0
53240,0.131781,1.07436,2.4443,0
53260,0.199379,1.07857,2.52568,0
53280,0.212465,1.07227,2.57558,0
53300,0.181946,1.05937,2.5992,0
53320,0.151674,1.03748,2.62453,0
53340,0.128878,1.00493,2.64266,0
53360,0.143931,0.964266,2.67647,0
53380,0.167242,0.914587,2.7085,0
53400,0.184159,0.854486,2.73932,0
53420,0.194438,0.785618,2.76624,0
53440,0.200129,0.707127,2.78545,0
53460,0.212644,0.621973,2.79761,0
53480,0.22907,0.528207,2.80995,0
53500,0.237104,0.426091,2.81754,0
53520,0.23072,0.32645,2.81325,0
53540,0.228457,0.247576,2.80327,0
53560,0.25703,0.199826,2.8069,0
53580,0.299694,0.186892,2.83044,0
53600,0.332348,0.211027,2.85403,0
53620,0.346457,0.254123,2.87267,0
53640,0.383371,0.288248,2.91323,0
53660,0.461737,0.296596,2.97404,0
53670,0.525987,0.2753,3.02213,0
53690,0.520701,0.231277,3.0458,0
53710,0.464323,0.167287,3.05593,0
53730,0.409976,0.0931046,3.06658,0
53750,0.377778,0.00833742,3.08564,0
53770,0.367919,-0.0772112,3.10859,0
53790,0.362301,-0.160894,3.13211,0
53810,0.348292,-0.242101,-3.1292,0
53830,0.322573,-0.320428,-3.10898,0
53850,0.290089,-0.392114,-3.08828,0
53870,0.252863,-0.451215,-3.07073,0
53890,0.22904,-0.493136,-3.05485,0
53910,0.241601,-0.526864,-3.03167,0
53930,0.278163,-0.577668,-3.00254,0
53950,0.316067,-0.640184,-2.9719,0
53970,0.343931,-0.699696,-2.93468,0
53990,0.345291,-0.748889,-2.90099,0
54010,0.327684,-0.748758,-2.85677,0
54030,0.328708,-0.69487,-2.82677,0
54050,0.355237,-0.605057,-2.81153,0
54070,0.388476,-0.516574,-2.78682,0
54090,0.389685,-0.484422,-2.74347,0
54110,0.36693,-0.484643,-2.70052,0
54130,0.359448,-0.512587,-2.66832,0
54150,0.364735,-0.518199,-2.65799,0
54170,0.371595,-0.496531,-2.66112,0
54190,0.38358,-0.459884,-2.67068,0
54210,0.399519,-0.434998,-2.67235,0
54230,0.414333,-0.427985,-2.66944,0
54250,0.417741,-0.421359,-2.66612,0
54270,0.413221,-0.411004,-2.65803,0
54290,0.408682,-0.394213,-2.64799,0
54310,0.406936,-0.372,-2.64106,0
54330,0.405849,-0.345512,-2.63742,0
54350,0.398534,-0.31892,-2.63489,0
54370,0.394536,-0.294893,-2.63282,0
54390,0.3955,-0.270178,-2.63163,0
54410,0.400005,-0.241425,-2.63442,0
54430,0.399813,-0.207816,-2.63986,0
54450,0.394341,-0.166009,-2.64784,0
54470,0.390744,-0.119211,-2.65542,0
54490,0.396355,-0.0722069,-2.66228,0
54510,0.40963,-0.028792,-2.66812,0
54530,0.423651,0.0101807,-2.67181,0
54550,0.438873,0.0452875,-2.67653,0
54570,0.45305,0.081222,-2.68295,0
54590,0.462996,0.119057,-2.69044,0
54610,0.470071,0.158598,-2.6974,0
54630,0.477107,0.198198,-2.70091,0
54650,0.482664,0.231895,-2.70094,0
54670,0.491301,0.259543,-2.7011,0
54690,0.502794,0.283381,-2.70069,0
54710,0.509747,0.299709,-2.69946,0
54730,0.509937,0.305306,-2.69753,0
54750,0.512306,0.306768,-2.69314,0
54770,0.519656,0.307488,-2.68688,0
54790,0.524694,0.303473,-2.68011,0
54810,0.521877,0.292843,-2.68044,0
54830,0.516511,0.271665,-2.68198,0
54850,0.521762,0.246491,-2.67546,0
54870,0.539824,0.222679,-2.66225,0
54890,0.553869,0.200802,-2.64729,0
54910,0.553329,0.181731,-2.63418,0
54930,0.54339,0.166224,-2.62296,0
54950,0.531958,0.152822,-2.61067,0
54970,0.525624,0.142769,-2.59632,0
54990,0.527751,0.135867,-2.58006,0
55010,0.535464,0.13289,-2.56417,0
55030,0.543858,0.13128,-2.54962,0
55050,0.548979,0.130903,-2.53751,0
55070,0.549043,0.132139,-2.52851,0
55090,0.545759,0.134045,-2.52226,0
55110,0.541873,0.136866,-2.5177,0
55130,0.538829,0.141814,-2.51556,0
55150,0.537123,0.148826,-2.51467,0
55170,0.537929,0.157127,-2.51498,0
55190,0.539158,0.164706,-2.51612,0
55210,0.539155,0.173021,-2.51814,0
55230,0.535525,0.181055,-2.52119,0
55250,0.528579,0.189254,-2.52483,0
55270,0.520212,0.198521,-2.52858,0
55290,0.513251,0.207288,-2.53158,0
55310,0.508856,0.215196,-2.53359,0
55330,0.505589,0.222672,-2.5364,0
55350,0.501163,0.230609,-2.54109,0
55370,0.494933,0.237835,-2.5471,0
55390,0.486917,0.242792,-2.55421,0
55410,0.476786,0.246499,-2.56253,0
55430,0.466507,0.249466,-2.57199,0
55450,0.457971,0.252898,-2.58259,0
55470,0.452281,0.255213,-2.59364,0
55490,0.450947,0.25577,-2.60492,0
55510,0.451394,0.255019,-2.61644,0
55530,0.449736,0.252899,-2.62905,0
55550,0.44568,0.249811,-2.64267,0
55570,0.441962,0.245928,-2.65601,0
55590,0.440817,0.241703,-2.66851,0
55610,0.442015,0.236262,-2.67927,0
55630,0.446042,0.229991,-2.68855,0
55650,0.449825,0.223161,-2.69648,0
55670,0.450944,0.216585,-2.70412,0
55690,0.449494,0.211468,-2.71188,0
55710,0.446907,0.208586,-2.71933,0
55730,0.444373,0.207294,-2.72643,0
55750,0.442673,0.207015,-2.73299,0
55770,0.440043,0.208091,-2.73845,0
55790,0.429773,0.209841,-2.7424,0
55810,0.393963,0.205991,-2.74989,0
55830,0.33949,0.19599,-2.76302,0
55850,0.28132,0.180663,-2.77882,0
55870,0.237785,0.163164,-2.79477,0
55890,0.209336,0.148365,-2.81374,0
55910,0.197862,0.13113,-2.83249,0
55930,0.199697,0.114646,-2.85263,0
55950,0.202588,0.098222,-2.87368,0
55970,0.200913,0.0819969,-2.89495,0
55990,0.192822,0.0646462,-2.91613,0
56010,0.18347,0.0491444,-2.93835,0
56030,0.173915,0.0353262,-2.96157,0
56050,0.169494,0.0259343,-2.98573,0
56070,0.164261,0.0186971,-3.00953,0
56090,0.156392,0.013103,-3.03191,0
56110,0.1482,0.0102274,-3.0533,0
56130,0.140155,0.00942766,-3.07533,0
56150,0.134268,0.0108198,-3.10049,0
56170,0.124323,0.0134819,-3.12828,0
56190,0.109753,0.0180684,3.12205,0
56210,0.0926446,0.019706,3.08311,0
56230,0.0752999,0.0171602,3.04008,0
56250,0.061385,0.0126201,2.99409,0
56270,0.0523934,0.00613431,2.94559,0
56290,0.0459533,-0.00355434,2.89599,0
56300,0.0411291,-0.0142349,2.84551,0
56320,0.039063,-0.0302976,2.7993,0
56340,0.0436628,-0.0458504,2.75614,0
56360,0.056555,-0.0620614,2.71854,0
56380,0.077446,-0.0793554,2.68925,0
56400,0.107138,-0.0984038,2.66409,0
56420,0.144892,-0.115306,2.63979,0
56440,0.189767,-0.129292,2.6174,0
56460,0.237408,-0.139701,2.59848,0
56480,0.284576,-0.144309,2.58168,0
56500,0.3272,-0.14814,2.56906,0
56520,0.360798,-0.148155,2.5627,0
56520,0.396383,-0.14243,2.5662,0
56540,0.431223,-0.129918,2.58426,0
56560,0.460612,-0.119965,2.61317,0
56580,0.463906,-0.11397,2.65223,0
56620,0.45616,-0.107812,2.7001,0
56620,0.463773,-0.102171,2.76201,0
56640,0.481411,-0.0983199,2.83682,0
56660,0.494763,-0.0976452,2.9172,0
56700,0.495525,-0.0984905,3.0009,0
56720,0.486518,-0.098501,3.08553,0
56740,0.471568,-0.0983942,-3.11422,0
56760,0.448107,-0.0983576,-3.02932,0
56780,0.415331,-0.0965433,-2.94286,0
56800,0.376413,-0.0964349,-2.8623,0
56820,0.322794,-0.0995617,-2.79416,0
56840,0.26014,-0.10875,-2.74624,0
56860,0.200831,-0.129862,-2.7229,0
56880,0.150536,-0.162199,-2.71559,0
56900,0.122804,-0.201149,-2.71667,0
56920,0.112342,-0.242846,-2.71932,0
56940,0.114701,-0.290922,-2.72442,0
56960,0.121889,-0.344372,-2.73153,0
56980,0.121881,-0.405944,-2.73222,0
57000,0.116528,-0.474267,-2.71988,0
57020,0.109718,-0.549777,-2.69331,0
57040,0.102277,-0.624882,-2.65078,0
57060,0.094134,-0.694693,-2.59756,0
57080,0.0758635,-0.759216,-2.53882,0
57100,0.0435651,-0.818521,-2.47892,0
57120,-0.00014465,-0.870268,-2.4179,0
57140,-0.0408747,-0.912593,-2.35814,0
57160,-0.0809673,-0.946092,-2.29662,0
57180,-0.115995,-0.973818,-2.24113,0
57200,-0.148609,-0.996369,-2.19064,0
57220,-0.176121,-1.01281,-2.1438,0
57240,-0.195758,-1.02194,-2.10329,0
57260,-0.21603,-1.02706,-2.06574,0
57280,-0.241831,-1.02995,-2.02825,0
57300,-0.268083,-1.0321,-1.9909,0
57320,-0.279467,-1.03394,-1.96266,0
57340,-0.280154,-1.04318,-1.94558,0
57360,-0.276249,-1.05747,-1.93831,0
57380,-0.281364,-1.07247,-1.92598,0
57400,-0.288863,-1.08404,-1.90458,0
57420,-0.287937,-1.09368,-1.88448,0
57440,-0.28512,-1.10001,-1.86886,0
57460,-0.28167,-1.10659,-1.85553,0
57480,-0.277659,-1.11279,-1.84484,0
57500,-0.271102,-1.11529,-1.83547,0
57520,-0.260565,-1.11583,-1.83447,0
57540,-0.253525,-1.11696,-1.83495,0
57560,-0.246129,-1.1163,-1.83953,0
57580,-0.231722,-1.11302,-1.85346,0
57600,-0.224661,-1.11139,-1.8687,0
57620,-0.232519,-1.11072,-1.8738,0
57640,-0.241471,-1.11221,-1.86932,0
57660,-0.242596,-1.11602,-1.86862,0
57680,-0.233663,-1.11996,-1.88184,0
57700,-0.231138,-1.12146,-1.88746,0
57720,-0.233229,-1.11917,-1.88557,0
57740,-0.227446,-1.11883,-1.88851,0
57760,-0.213378,-1.11978,-1.90797,0
57780,-0.180497,-1.12056,-1.95126,0
57800,-0.155445,-1.11695,-1.99592,0
57820,-0.141592,-1.10939,-2.0341,0
57840,-0.124806,-1.09845,-2.06896,0
57860,-0.0930813,-1.08365,-2.11593,0
57880,-0.0626123,-1.06561,-2.16747,0
57900,-0.033502,-1.03872,-2.22058,0
57920,0.0026504,-0.99724,-2.27673,0
57940,0.0403996,-0.940861,-2.33359,0
57960,0.0744051,-0.870622,-2.38838,0
57980,0.103003,-0.790736,-2.44199,0
58000,0.117865,-0.710244,-2.49602,0
58020,0.11089,-0.624806,-2.54961,0
58040,0.091364,-0.547389,-2.61103,0
58060,0.0649663,-0.483246,-2.68718,0
58080,0.0424283,-0.435855,-2.77451,0
58100,0.024313,-0.398334,-2.86074,0
58120,0.0404113,-0.365971,-2.94735,0
58140,0.092218,-0.341004,-3.03652,0
58160,0.148905,-0.323523,-3.12463,0
58180,0.200986,-0.310153,3.0717,0
58200,0.246834,-0.299485,2.98621,0
58220,0.287711,-0.290161,2.90108,0
58240,0.322587,-0.275366,2.81828,0
58260,0.34418,-0.257798,2.75129,0
58280,0.348826,-0.236986,2.69777,0
58300,0.34074,-0.217007,2.65171,0
58320,0.326598,-0.19517,2.61189,0
58340,0.309944,-0.173383,2.57786,0
58360,0.302244,-0.151359,2.55038,0
58380,0.296672,-0.130329,2.53065,0
58400,0.28131,-0.111722,2.51962,0
58420,0.242009,-0.0908778,2.51704,0
58440,0.200543,-0.068988,2.52076,0
58460,0.174907,-0.0503361,2.53378,0
58480,0.168216,-0.0328249,2.54915,0
58500,0.166322,-0.0196439,2.56131,0
58520,0.161567,-0.0133009,2.56666,0
58540,0.157485,-0.0162497,2.56609,0
58560,0.157965,-0.0260785,2.55938,0
58580,0.169352,-0.0396931,2.54798,0
58600,0.190167,-0.0554437,2.53773,0
58620,0.212184,-0.073787,2.53134,0
58640,0.22223,-0.0923034,2.53095,0
58660,0.22072,-0.109712,2.53251,0
58670,0.212892,-0.121895,2.5422,0
58700,0.209149,-0.124049,2.5674,0
58720,0.196482,-0.123792,2.60914,0
58740,0.181449,-0.118975,2.66066,0
58760,0.171664,-0.112652,2.71836,0
58780,0.17127,-0.107179,2.77955,0
58800,0.182746,-0.102357,2.84067,0
58820,0.199929,-0.100777,2.90377,0
58840,0.218093,-0.10131,2.96903,0
58860,0.230499,-0.105742,3.03727,0
58880,0.235347,-0.112708,3.10856,0
58900,0.237168,-0.118385,-3.10313,0
58920,0.240277,-0.118797,-3.02729,0
58930,0.243802,-0.12071,-2.95079,0
58950,0.243974,-0.124791,-2.88014,0
58970,0.236835,-0.132475,-2.82221,0
58990,0.224163,-0.141449,-2.77495,0
59010,0.217973,-0.150462,-2.73393,0
59030,0.221509,-0.162666,-2.69952,0
59050,0.228922,-0.173222,-2.67329,0
59070,0.233179,-0.185221,-2.6556,0
59090,0.231715,-0.196019,-2.64016,0
59110,0.230456,-0.202941,-2.62485,0
59130,0.231649,-0.204895,-2.60907,0
59150,0.23315,-0.202775,-2.59131,0
59170,0.231196,-0.197891,-2.57072,0
59190,0.232482,-0.189271,-2.54514,0
59210,0.238466,-0.174143,-2.51207,0
59230,0.24806,-0.154671,-2.4692,0
59250,0.260046,-0.129214,-2.41665,0
59270,0.269547,-0.0984402,-2.35666,0
59290,0.27363,-0.0670938,-2.29154,0
59310,0.271651,-0.03753,-2.2252,0
59330,0.269296,-0.0103946,-2.16528,0
59350,0.266282,0.0114522,-2.11499,0
59370,0.261346,0.0275266,-2.07586,0
59390,0.256602,0.0370947,-2.04705,0
59410,0.24884,0.039297,-2.03117,0
59430,0.242964,0.0366844,-2.02711,0
59450,0.240945,0.0301946,-2.02531,0
59470,0.242999,0.0220599,-2.02503,0
59490,0.245261,0.0117483,-2.02825,0
59510,0.242175,-0.000236616,-2.03541,0
59530,0.238713,-0.0145613,-2.0459,0
59550,0.236687,-0.0318046,-2.05661,0
59570,0.240094,-0.0527147,-2.06871,0
59590,0.240159,-0.0862654,-2.08461,0
59610,0.23742,-0.122817,-2.10705,0
59630,0.233238,-0.16481,-2.1298,0
59650,0.233552,-0.208837,-2.15269,0
59670,0.243471,-0.251458,-2.18058,0
59690,0.253687,-0.293297,-2.21423,0
59710,0.261269,-0.329512,-2.25713,0
59730,0.266689,-0.359541,-2.31363,0
59750,0.266798,-0.38162,-2.37889,0
59770,0.264214,-0.391705,-2.44889,0
59790,0.260425,-0.387832,-2.52409,0
59810,0.255252,-0.371138,-2.59732,0
59830,0.248639,-0.344348,-2.66721,0
59840,0.235471,-0.314445,-2.73398,0
59860,0.216941,-0.285435,-2.79481,0
59880,0.205906,-0.257537,-2.848,0
59900,0.195297,-0.234093,-2.89324,0
59920,0.181671,-0.215784,-2.93475,0
59950,0.168893,-0.200291,-2.97097,0
59970,0.167656,-0.182808,-3.00297,0
59990,0.173557,-0.171817,-3.02946,0
60010,0.179183,-0.158922,-3.05,0
60030,0.190368,-0.141974,-3.06565,0
60050,0.198981,-0.123928,-3.07272,0
60070,0.202064,-0.101708,-3.07241,0
60090,0.201018,-0.0714692,-3.06493,0
60110,0.193719,-0.0326174,-3.04734,0
60130,0.190773,0.00990804,-3.02445,0
60150,0.189384,0.0521603,-3.00899,0
60170,0.174523,0.0924005,-3.00844,0
60190,0.145604,0.126827,-3.02865,0
60210,0.112051,0.15194,-3.0688,0
60230,0.0833455,0.165742,-3.12069,0
60250,0.0715442,0.170566,3.10247,0
60270,0.0723072,0.166561,3.03629,0
60290,0.0712972,0.154978,2.96447,0
60310,0.0613982,0.135526,2.88976,0
60330,0.0420883,0.108635,2.81314,0
60350,0.0186028,0.0762576,2.7358,0
60370,0.00218023,0.0386319,2.65874,0
60390,-0.00112494,-0.00184367,2.58661,0
60410,0.0112431,-0.0435746,2.52269,0
60430,0.0332467,-0.0828163,2.46336,0
60440,0.0600175,-0.116386,2.40895,0
60440,0.0872552,-0.143494,2.36303,0
60470,0.114015,-0.162916,2.32449,0
60500,0.144667,-0.178646,2.2924,0
60520,0.175747,-0.182989,2.26751,0
60540,0.201986,-0.175654,2.25797,0
60560,0.220916,-0.151731,2.26641,0
60580,0.239399,-0.110944,2.29315,0
60600,0.254241,-0.0659309,2.33783,0
60620,0.268793,-0.0120201,2.39845,0
60640,0.290736,0.0394261,2.47191,0
60660,0.320189,0.0874844,2.55086,0
60680,0.352722,0.131531,2.61703,0
60700,0.366525,0.159548,2.65818,0
60720,0.347316,0.168489,2.67576,0
60740,0.308457,0.173073,2.67463,0
60770,0.265015,0.165106,2.66582,0
60790,0.241198,0.138612,2.6445,0
60810,0.237871,0.106694,2.61568,0
60830,0.232005,0.0842053,2.58197,0
60840,0.227415,0.0569132,2.54021,0
60840,0.217747,0.0254358,2.49177,0
60870,0.206344,-0.00812202,2.44387,0
60900,0.197837,-0.0406528,2.39862,0
60920,0.198094,-0.0699545,2.35675,0
60940,0.201017,-0.0933173,2.3247,0
60970,0.206169,-0.112518,2.29999,0
60990,0.222811,-0.125994,2.27923,0
61010,0.241619,-0.132995,2.26153,0
61030,0.264128,-0.129042,2.24478,0
61050,0.287419,-0.113355,2.22993,0
61070,0.306976,-0.0844817,2.21716,0
61080,0.312174,-0.0473143,2.21161,0
61080,0.311684,-0.00442942,2.21195,0
61100,0.317744,0.0493736,2.21647,0
61130,0.331577,0.111492,2.21864,0
61160,0.354347,0.183059,2.21535,0
61180,0.383644,0.262032,2.21151,0
61200,0.412116,0.344688,2.20731,0
61230,0.413135,0.422048,2.19834,0
61250,0.374949,0.490916,2.18775,0
61270,0.322955,0.548574,2.1887,0
61290,0.303212,0.599955,2.20217,0
61310,0.322331,0.643935,2.22357,0
61330,0.340702,0.678636,2.24645,0
61350,0.339753,0.702826,2.27047,0
61370,0.311822,0.720207,2.28998,0
61390,0.286193,0.73053,2.30684,0
61410,0.273154,0.73557,2.31728,0
61430,0.267193,0.733011,2.3247,0
61450,0.253725,0.724764,2.32567,0
61470,0.234512,0.711422,2.32185,0
61490,0.224561,0.696524,2.31941,0
61510,0.233083,0.682878,2.3208,0
61530,0.248831,0.66804,2.32407,0
61550,0.254966,0.650175,2.32573,0
61570,0.241264,0.628581,2.32,0
61580,0.21165,0.60282,2.30219,0
61600,0.187428,0.56926,2.27875,0
61620,0.175721,0.533179,2.25316,0
61640,0.176275,0.492111,2.22779,0
61660,0.186922,0.445434,2.20106,0
61680,0.202189,0.396097,2.17484,0
61700,0.215785,0.346704,2.14898,0
61720,0.22765,0.299414,2.1249,0
61740,0.237306,0.253224,2.10477,0
61760,0.260795,0.213456,2.09262,0
61780,0.302556,0.18246,2.09694,0
61800,0.331578,0.150881,2.10959,0
61820,0.339006,0.117742,2.11936,0
61840,0.331467,0.0876256,2.12727,0
61860,0.322016,0.060619,2.14209,0
61880,0.317643,0.0376421,2.16383,0
61900,0.318474,0.023021,2.19118,0
61920,0.31412,0.0140399,2.22238,0
61940,0.310906,0.0128644,2.255,0
61960,0.308762,0.0188411,2.28977,0
61980,0.304597,0.0300744,2.32615,0
62000,0.295967,0.0463814,2.36723,0
62020,0.271268,0.0697026,2.41159,0
62040,0.232435,0.0968218,2.45229,0
62060,0.193441,0.124913,2.48468,0
62080,0.162719,0.1532,2.52035,0
62100,0.157511,0.1786,2.56692,0
62120,0.179713,0.202536,2.62256,0
62140,0.21428,0.220103,2.6807,0
62160,0.240405,0.228409,2.73478,0
62180,0.252132,0.227797,2.78332,0
62200,0.255169,0.222074,2.8288,0
62220,0.258976,0.213729,2.87245,0
62240,0.271112,0.201747,2.91572,0
62260,0.301318,0.185979,2.95626,0
62280,0.342816,0.163212,2.99333,0
62300,0.387297,0.133838,3.02752,0
62320,0.435876,0.105361,3.05649,0
62340,0.482392,0.0825481,3.0776,0
62360,0.520249,0.0690369,3.0902,0
62380,0.547034,0.065942,3.09552,0
62400,0.560777,0.0737965,3.09497,0
62420,0.558742,0.0905644,3.08991,0
62440,0.54384,0.113236,3.08166,0
62460,0.52147,0.14067,3.07048,0
62480,0.494718,0.161543,3.05876,0
62500,0.471926,0.174708,3.04865,0
62520,0.460034,0.18326,3.04164,0
62540,0.454614,0.188314,3.03567,0
62560,0.448059,0.19059,3.02756,0
62580,0.433268,0.191766,3.01387,0
62600,0.402769,0.185221,2.99825,0
62620,0.374801,0.177068,2.9824,0
62640,0.353701,0.167758,2.96723,0
62660,0.338892,0.15575,2.95413,0
62680,0.334781,0.141586,2.94223,0
62700,0.339146,0.124108,2.92971,0
62720,0.35204,0.10321,2.91854,0
62740,0.365511,0.0799967,2.90792,0
62760,0.374253,0.0559758,2.89672,0
62780,0.370752,0.0267016,2.88445,0
62800,0.360314,-0.00919976,2.87201,0
62820,0.357701,-0.0473286,2.86398,0
62840,0.362267,-0.0867988,2.85935,0
62860,0.356931,-0.128171,2.85609,0
62880,0.336116,-0.172275,2.85287,0
62900,0.3135,-0.219243,2.84907,0
62920,0.291212,-0.268584,2.84655,0
62940,0.268661,-0.317245,2.85697,0
62960,0.269509,-0.363518,2.87652,0
62980,0.256921,-0.416452,2.89509,0
63000,0.223346,-0.481446,2.91062,0
63020,0.188389,-0.553544,2.92723,0
63040,0.162306,-0.630474,2.95365,0
63060,0.141912,-0.700342,2.998,0
63080,0.11154,-0.767975,3.05089,0
63100,0.0656748,-0.833263,3.09972,0
63120,0.0116676,-0.893975,-3.13487,0
63140,-0.0431971,-0.948098,-3.07883,0
63160,-0.0952405,-0.994854,-3.01116,0
63180,-0.146957,-1.03534,-2.93311,0
63200,-0.207827,-1.07144,-2.84618,0
63220,-0.286231,-1.10334,-2.75042,0
63240,-0.379872,-1.13083,-2.64795,0
63260,-0.475743,-1.15213,-2.54448,0
63280,-0.580406,-1.16973,-2.43214,0
63300,-0.707442,-1.1852,-2.30628,0
63320,-0.824118,-1.1977,-2.19069,0
63340,-0.931514,-1.20675,-2.07767,0
63360,-1.04844,-1.21051,-1.95226,0
63380,-1.17667,-1.20917,-1.82231,0
63400,-1.30031,-1.20881,-1.70865,0
63420,-1.42205,-1.21274,-1.60197,0
63440,-1.5393,-1.21139,-1.49391,0
63460,-1.65481,-1.20688,-1.38038,0
63480,-1.76183,-1.19925,-1.27186,0
63500,-1.86157,-1.18608,-1.17339,0
63520,-1.96213,-1.16852,-1.07906,0
63540,-2.04567,-1.14754,-1.00054,0
63560,-2.11223,-1.1288,-0.934688,0
63580,-2.1704,-1.11825,-0.873237,0
63600,-2.22577,-1.11994,-0.813744,0
63620,-2.2709,-1.13178,-0.764841,0
63640,-2.31638,-1.15858,-0.716654,0
63660,-2.34795,-1.20118,-0.677837,0
63680,-2.35891,-1.25325,-0.654136,0
63700,-2.34889,-1.30804,-0.651857,0
63720,-2.28864,-1.36122,-0.693332,0
63740,-2.16033,-1.41238,-0.797215,0
63760,-1.94378,-1.46176,-0.998112,0
63780,-1.57689,-1.50019,-1.35902,0
63800,-0.905107,-1.51333,-2.02439,0
63820,-0.355716,-1.49064,-2.5576,0
63840,-0.0986658,-1.45509,-2.80407,0
63860,0.0475696,-1.41683,-2.933,0
63880,0.131691,-1.38641,-3.00349,0
63900,0.157338,-1.35911,-3.02515,0
63920,0.158557,-1.33141,-3.03006,0
63940,0.154755,-1.30398,-3.03098,0
63960,0.182739,-1.27849,-3.05784,0
63980,0.227019,-1.25726,-3.09886,0
64000,0.227439,-1.23894,-3.11924,0
64020,0.215346,-1.22,3.13945,0
64040,0.224126,-1.20182,3.09736,0
64060,0.247358,-1.18666,3.05251,0
64080,0.290773,-1.16679,3.00061,0
64100,0.348801,-1.13858,2.94702,0
64120,0.407492,-1.09843,2.90065,0
64140,0.443805,-1.05308,2.8812,0
64160,0.454677,-0.999014,2.8969,0
64180,0.443839,-0.935115,2.95132,0
64200,0.429882,-0.860451,3.02518,0
64210,0.415185,-0.776785,3.10516,0
64230,0.405553,-0.687577,-3.10304,0
64250,0.400342,-0.599808,-3.04524,0
64270,0.411375,-0.521868,-3.00432,0
64290,0.428267,-0.467233,-2.99053,0
64310,0.41806,-0.426954,-3.00405,0
64330,0.381154,-0.415927,-3.0288,0
64350,0.348139,-0.413299,-3.04233,0
64370,0.342569,-0.413598,-3.06246,0
64390,0.389261,-0.419271,-3.10194,0
64410,0.440486,-0.424458,3.13393,0
64430,0.468832,-0.432401,3.08237,0
64450,0.471519,-0.449963,3.03411,0
64470,0.471574,-0.471725,2.9881,0
64490,0.479424,-0.492531,2.94393,0
64510,0.500145,-0.509482,2.90099,0
64530,0.528609,-0.525209,2.86163,0
64550,0.563833,-0.536207,2.8268,0
64570,0.596961,-0.543486,2.80197,0
64590,0.622405,-0.546005,2.79211,0
64610,0.646814,-0.542406,2.79555,0
64630,0.670707,-0.532105,2.81023,0
64650,0.686738,-0.515649,2.83452,0
64670,0.675341,-0.482246,2.8653,0
64690,0.633448,-0.421635,2.90064,0
64710,0.570216,-0.340528,2.94305,0
64730,0.515487,-0.269351,3.01381,0
64750,0.512722,-0.213017,3.106,0
64770,0.54243,-0.17156,-3.09224,0
64790,0.540423,-0.141091,-3.02009,0
64810,0.501176,-0.123224,-2.95249,0
64830,0.465613,-0.110596,-2.88917,0
64850,0.447439,-0.100805,-2.83014,0
64870,0.427438,-0.105299,-2.78908,0
64890,0.421588,-0.0936754,-2.78395,0
64910,0.421474,-0.0757705,-2.79547,0
64930,0.406982,-0.062913,-2.80251,0
64950,0.386144,-0.0642314,-2.8008,0
64970,0.374978,-0.0690676,-2.79427,0
64990,0.363852,-0.0712302,-2.78618,0
65010,0.348183,-0.0718741,-2.78116,0
65030,0.333989,-0.0700155,-2.77938,0
65050,0.317698,-0.0686262,-2.77154,0
65070,0.308062,-0.068002,-2.7608,0
65090,0.315418,-0.0756727,-2.75373,0
65110,0.32036,-0.100372,-2.76243,0
65130,0.333529,-0.136316,-2.78312,0
65150,0.348846,-0.17461,-2.80728,0
65170,0.36254,-0.214875,-2.82218,0
65190,0.371184,-0.252784,-2.82956,0
65210,0.375655,-0.290178,-2.83708,0
65230,0.372024,-0.320305,-2.83998,0
65250,0.365875,-0.337989,-2.83074,0
65270,0.345598,-0.340448,-2.8104,0
65290,0.316614,-0.324337,-2.79135,0
65310,0.289617,-0.287754,-2.7764,0
65330,0.28351,-0.24735,-2.76092,0
65350,0.296519,-0.210391,-2.72948,0
65370,0.305265,-0.176819,-2.68857,0
65390,0.298583,-0.146564,-2.64986,0
65410,0.285999,-0.114764,-2.62039,0
65430,0.291058,-0.0934595,-2.60742,0
65450,0.298686,-0.0912168,-2.59822,0
65470,0.323147,-0.110438,-2.59285,0
65490,0.347505,-0.133976,-2.58489,0
65510,0.361692,-0.155557,-2.57935,0
65530,0.368164,-0.174315,-2.57623,0
65550,0.370704,-0.192017,-2.5756,0
65570,0.379326,-0.211665,-2.57016,0
65590,0.393694,-0.231902,-2.56265,0
65610,0.400747,-0.248478,-2.55875,0
65630,0.399361,-0.263924,-2.55482,0
65650,0.401818,-0.278922,-2.55115,0
65670,0.410773,-0.29582,-2.54757,0
65690,0.42262,-0.310307,-2.54588,0
65710,0.433761,-0.322288,-2.5416,0
65730,0.440364,-0.330851,-2.53331,0
65750,0.432658,-0.336346,-2.51728,0
65770,0.411855,-0.332425,-2.49737,0
65790,0.384335,-0.314721,-2.47478,0
65810,0.37087,-0.278862,-2.44802,0
65830,0.371657,-0.241283,-2.4193,0
65850,0.379408,-0.206353,-2.38905,0
65870,0.381927,-0.176995,-2.35152,0
65890,0.381198,-0.149211,-2.31201,0
65910,0.38303,-0.123453,-2.27712,0
65930,0.394076,-0.0954,-2.25324,0
65950,0.404631,-0.0730933,-2.23415,0
65970,0.403521,-0.0636712,-2.21723,0
65990,0.402255,-0.0662024,-2.20532,0
66010,0.405335,-0.074341,-2.19713,0
66030,0.411007,-0.0838842,-2.19563,0
66050,0.41659,-0.0946034,-2.1956,0
66070,0.420239,-0.106605,-2.19657,0
66090,0.42429,-0.118961,-2.20029,0
66110,0.430388,-0.13347,-2.20564,0
66130,0.437,-0.148273,-2.21234,0
66150,0.435451,-0.162851,-2.21946,0
66170,0.428383,-0.177446,-2.22846,0
66190,0.422928,-0.189893,-2.23977,0
66210,0.417849,-0.20255,-2.25302,0
66230,0.417688,-0.218263,-2.2684,0
66250,0.419251,-0.234338,-2.28662,0
66270,0.419373,-0.249331,-2.30744,0
66290,0.422403,-0.263919,-2.32769,0
66300,0.428263,-0.274396,-2.34821,0
66340,0.429157,-0.283105,-2.36672,0
66340,0.419972,-0.289128,-2.38508,0
66350,0.402348,-0.287363,-2.40353,0
66380,0.385523,-0.275825,-2.42227,0
66410,0.372939,-0.258574,-2.43764,0
66430,0.360928,-0.239174,-2.4515,0
66450,0.358386,-0.218857,-2.469,0
66470,0.359997,-0.199075,-2.48555,0
66490,0.361786,-0.181888,-2.49611,0
66510,0.364035,-0.164707,-2.50505,0
66530,0.359372,-0.14777,-2.51306,0
66550,0.351568,-0.129091,-2.52647,0
66570,0.347066,-0.112355,-2.54232,0
66590,0.349568,-0.10261,-2.56149,0
66600,0.354138,-0.101007,-2.58165,0
66620,0.361112,-0.105841,-2.60225,0
66620,0.368401,-0.115013,-2.62454,0
66640,0.372222,-0.124664,-2.64842,0
66680,0.372532,-0.132574,-2.67521,0
66710,0.376473,-0.141422,-2.69958,0
66730,0.38459,-0.152679,-2.72179,0
66750,0.388214,-0.164591,-2.74553,0
66770,0.384472,-0.176528,-2.77289,0
66790,0.380351,-0.187595,-2.80134,0
66810,0.380147,-0.198916,-2.82747,0
66830,0.384916,-0.212534,-2.85129,0
66840,0.387939,-0.226358,-2.87534,0
66860,0.38769,-0.240132,-2.90062,0
66860,0.386491,-0.253232,-2.92791,0
66880,0.389321,-0.267756,-2.95709,0
66900,0.395771,-0.281557,-2.98762,0
66920,0.403987,-0.293331,-3.01726,0
66920,0.415458,-0.301068,-3.04669,0
66940,0.422667,-0.30653,-3.07493,0
66980,0.421437,-0.31102,-3.09858,0
67020,0.415456,-0.31315,-3.11783,0
67040,0.411268,-0.309288,-3.13052,0
67060,0.409821,-0.297359,-3.13728,0
67080,0.405397,-0.276713,-3.13956,0
67100,0.396997,-0.251006,-3.14001,0
67120,0.386571,-0.22258,-3.1399,0
67140,0.386133,-0.193551,-3.13481,0
67160,0.391769,-0.164907,-3.12306,0
67180,0.387542,-0.133583,-3.10675,0
67200,0.382956,-0.0993121,-3.08889,0
67220,0.393894,-0.0650945,-3.06451,0
67240,0.416052,-0.0369121,-3.03665,0
67260,0.42155,-0.0182495,-3.01496,0
67280,0.411656,-0.0035489,-2.99969,0
67300,0.40427,0.00568217,-2.98789,0
67320,0.413507,0.00226542,-2.98093,0
67340,0.428482,-0.00659756,-2.97972,0
67360,0.445709,-0.0130018,-2.98593,0
67380,0.456691,-0.0202861,-2.98862,0
67400,0.458853,-0.0300995,-2.98824,0
67420,0.460413,-0.0398525,-2.989,0
67440,0.462647,-0.0474571,-2.99216,0
